Bullish,Neutral,Bearish,High,Low,Close,Volume,GDP,Unemployment,CPI,Interest_Rate,M2_Money_Supply,RSI,MACD_Signal,VWAP,Momentum,Bollinger_Upper,Bollinger_Lower,P,S1,S2,S3,R1,R2,R3,Next_Higher
0.24,0.38,0.38,9.96875,9.75,9.875,682800.0,5872.701,5.4,127.5,8.23,3170.4,44.8152772647122,-0.008130375563514,10.07318394590846,-0.09375,10.421301518847873,9.688073481152127,9.864583333333334,9.760416666666668,9.645833333333334,9.541666666666668,9.979166666666668,10.083333333333334,10.197916666666668,1
0.24,0.38,0.38,10.09375,9.84375,9.90625,727200.0,5872.701,5.4,127.5,8.23,3170.4,46.80493424557177,-0.0141584310992431,10.0645089540933,-0.09375,10.422100733762075,9.684149266237924,9.947916666666666,9.802083333333332,9.697916666666666,9.552083333333332,10.052083333333332,10.197916666666666,10.302083333333332,0
0.24,0.38,0.38,9.96875,9.8125,9.875,592000.0,5872.701,5.4,127.5,8.23,3170.4,44.93555522640929,-0.019515250357869,10.05681716898859,-0.25,10.418978726396626,9.665396273603376,9.885416666666666,9.802083333333332,9.729166666666666,9.645833333333332,9.958333333333332,10.041666666666666,10.114583333333332,1
0.24,0.38,0.38,9.96875,9.90625,9.9375,305200.0,5872.701,5.4,127.5,8.23,3170.4,49.582474751976825,-0.0231289082045075,10.054371659010933,-0.0625,10.365196991533034,9.675428008466964,9.9375,9.90625,9.875,9.84375,9.96875,10.0,10.03125,0
0.24,0.38,0.38,9.96875,9.8125,9.8125,428000.0,5872.701,5.3,128.0,8.24,3170.5,41.50038116623006,-0.02740213886716,10.04761387967726,-0.34375,10.330626108809511,9.663123891190487,9.864583333333334,9.760416666666668,9.708333333333334,9.604166666666668,9.916666666666668,10.020833333333334,10.072916666666668,1
0.15,0.37,0.48,9.9375,9.78125,9.875,263200.0,5872.701,5.3,128.0,8.24,3170.5,46.528821938530186,-0.030805161165814,10.044698209472468,-0.0625,10.311957999541496,9.653667000458505,9.864583333333334,9.791666666666668,9.708333333333334,9.635416666666668,9.947916666666668,10.020833333333334,10.104166666666668,0
0.15,0.37,0.48,9.9375,9.84375,9.875,630400.0,5872.701,5.3,128.0,8.24,3170.5,46.528821938530186,-0.033414150474988,10.03809969529496,0.25,10.254000807109035,9.667874192890965,9.885416666666666,9.833333333333332,9.791666666666666,9.739583333333332,9.927083333333332,9.979166666666666,10.020833333333332,1
0.15,0.37,0.48,9.9375,9.71875,9.9375,341600.0,5872.701,5.3,128.0,8.24,3170.5,52.01966909817503,-0.0343153791535229,10.036023770689864,0.09375,10.204894495716191,9.685730504283809,9.864583333333334,9.791666666666668,9.645833333333334,9.572916666666668,10.010416666666668,10.083333333333334,10.229166666666668,0
0.15,0.37,0.48,9.96875,9.875,9.90625,580400.0,5872.701,5.3,128.0,8.24,3170.5,49.11022866525752,-0.0345193364652528,10.031627894761415,-0.09375,10.172976746155792,9.692648253844208,9.916666666666666,9.864583333333332,9.822916666666666,9.770833333333332,9.958333333333332,10.010416666666666,10.052083333333332,0
0.15,0.37,0.48,9.96875,9.875,9.875,654000.0,5872.701,5.3,128.0,8.24,3170.5,46.13306892312944,-0.0346954647615834,10.025869386791392,0.0,10.143804338718295,9.696820661281702,9.90625,9.84375,9.8125,9.75,9.9375,10.0,10.03125,1
0.19,0.3,0.51,9.96875,9.875,9.96875,345600.0,5872.701,5.3,128.0,8.24,3170.5,55.47618443102802,-0.0332701129557782,10.024780798500055,0.09375,10.143804338718295,9.696820661281702,9.9375,9.90625,9.84375,9.8125,10.0,10.03125,10.09375,0
0.19,0.3,0.51,9.96875,9.875,9.875,211200.0,5872.701,5.3,128.0,8.24,3170.5,46.22505374516752,-0.0323356009231707,10.023056439831672,-0.03125,10.135149638988944,9.692975361011056,9.90625,9.84375,9.8125,9.75,9.9375,10.0,10.03125,0
0.19,0.3,0.51,9.875,9.75,9.875,425600.0,5872.701,5.3,128.0,8.24,3170.5,46.22505374516753,-0.0316840270408904,10.019699480043473,0.0,10.099490708343067,9.703634291656934,9.833333333333334,9.791666666666668,9.708333333333334,9.666666666666668,9.916666666666668,9.958333333333334,10.041666666666668,1
0.19,0.3,0.51,9.96875,9.90625,9.96875,256000.0,5872.701,5.3,128.0,8.24,3170.5,55.99488764917742,-0.0296760090870242,10.019013969768958,0.03125,10.095129848805197,9.704870151194806,9.947916666666666,9.927083333333332,9.885416666666666,9.864583333333332,9.989583333333332,10.010416666666666,10.052083333333332,0
0.19,0.3,0.51,10.0,9.875,9.90625,230000.0,5872.701,5.3,128.0,8.24,3170.5,49.12892960669439,-0.0278525752566124,10.017667135765029,0.09375,10.041129338618026,9.733870661381973,9.927083333333334,9.854166666666668,9.802083333333334,9.729166666666668,9.979166666666668,10.052083333333334,10.104166666666668,0
0.23,0.43,0.34,9.9375,9.875,9.90625,677200.0,5872.701,5.3,128.0,8.24,3170.5,49.12892960669438,-0.0261769409402583,10.013882060800642,0.03125,10.038053874685207,9.733821125314794,9.90625,9.875,9.84375,9.8125,9.9375,9.96875,10.0,0
0.23,0.43,0.34,9.875,9.75,9.75,602000.0,5872.701,5.3,128.0,8.24,3170.5,34.88971555749268,-0.0271149989651048,10.006146523178808,-0.125,10.004128729293727,9.780246270706272,9.791666666666666,9.708333333333332,9.666666666666666,9.583333333333332,9.833333333333332,9.916666666666666,9.958333333333332,1
0.23,0.43,0.34,9.90625,9.71875,9.78125,722400.0,5872.701,5.3,128.0,8.24,3170.5,38.97158147523167,-0.0290817180960337,9.998504120724045,-0.15625,10.009838159254764,9.768286840745237,9.802083333333334,9.697916666666668,9.614583333333334,9.510416666666668,9.885416666666668,9.989583333333334,10.072916666666668,0
0.23,0.43,0.34,9.84375,9.65625,9.65625,537200.0,5872.701,5.3,128.0,8.24,3170.5,30.225858993621884,-0.0335181022892199,9.990068523004645,-0.25,10.0207468541141,9.723003145885896,9.71875,9.59375,9.53125,9.40625,9.78125,9.90625,9.96875,1
0.24,0.38,0.38,9.78125,9.6875,9.75,732400.0,5872.701,5.3,128.0,8.24,3170.5,41.57264925203508,-0.0376977410770229,9.982263738458808,-0.125,10.024128486596227,9.707121513403772,9.739583333333334,9.697916666666668,9.645833333333334,9.604166666666668,9.791666666666668,9.833333333333334,9.885416666666668,1
0.24,0.38,0.38,9.84375,9.65625,9.78125,976000.0,5872.701,5.3,128.0,8.24,3170.5,45.01197493341662,-0.0409128569709757,9.97391667375766,-0.1875,10.023759801831435,9.698115198168566,9.760416666666666,9.677083333333332,9.572916666666666,9.489583333333332,9.864583333333332,9.947916666666666,10.052083333333332,1
0.24,0.38,0.38,9.9375,9.78125,9.90625,908000.0,5872.701,5.3,128.0,8.24,3170.5,56.759698516651696,-0.0412673362419295,9.97139982385712,0.03125,10.023759801831435,9.698115198168566,9.875,9.8125,9.71875,9.65625,9.96875,10.03125,10.125,1
0.24,0.38,0.38,10.0,9.90625,10.0,690400.0,5872.701,5.3,128.0,8.24,3170.5,63.506661965713135,-0.03822045840565,9.972186424405637,0.125,10.041475289453633,9.692899710546367,9.96875,9.9375,9.875,9.84375,10.03125,10.0625,10.125,0
0.24,0.38,0.38,9.96875,9.84375,9.96875,849200.0,5872.701,5.2,128.6,8.28,3192.6,59.91120300214525,-0.0336128615433642,9.972073976171028,0.0,10.046223126208782,9.69127687379122,9.927083333333334,9.885416666666668,9.802083333333334,9.760416666666668,10.010416666666668,10.052083333333334,10.135416666666668,1
0.21,0.37,0.42,10.25,9.90625,10.21875,768000.0,5872.701,5.2,128.6,8.28,3192.6,73.67090182476593,-0.0242033595736993,9.979164171619336,0.3125,10.123333310174894,9.654791689825103,10.125,10.0,9.78125,9.65625,10.34375,10.46875,10.6875,0
0.21,0.37,0.42,10.375,10.125,10.1875,408400.0,5872.701,5.2,128.6,8.28,3192.6,70.19589593296554,-0.0127207892990758,9.982300575051609,0.28125,10.17406406459431,9.63531093540569,10.229166666666666,10.083333333333332,9.979166666666666,9.833333333333332,10.333333333333332,10.479166666666666,10.583333333333332,1
0.21,0.37,0.42,10.3125,10.1875,10.21875,422800.0,5872.701,5.2,128.6,8.28,3192.6,71.73428922180766,-1.3226530215343715e-05,9.985929174470431,0.46875,10.225024585275374,9.618725414724626,10.239583333333334,10.166666666666668,10.114583333333334,10.041666666666668,10.291666666666668,10.364583333333334,10.416666666666668,1
0.21,0.37,0.42,10.375,10.1875,10.28125,418000.0,5872.701,5.2,128.6,8.28,3192.6,74.74281757610063,0.0137931675064778,9.99034281056034,0.5,10.282273800382908,9.595851199617094,10.28125,10.1875,10.09375,10.0,10.375,10.46875,10.5625,1
0.21,0.37,0.42,10.375,10.28125,10.34375,396400.0,5872.701,5.2,128.6,8.28,3192.6,77.50542909346319,0.0285302472828939,9.99528163030756,0.6875,10.348275645314644,9.573599354685356,10.333333333333334,10.291666666666668,10.239583333333334,10.197916666666668,10.385416666666668,10.427083333333334,10.479166666666668,0
0.22,0.42,0.36,10.34375,10.09375,10.125,237200.0,5872.701,5.2,128.6,8.28,3192.6,53.75885821212427,0.0395230660821783,9.996357386093475,0.375,10.365208844261176,9.581666155738825,10.1875,10.03125,9.9375,9.78125,10.28125,10.4375,10.53125,1
0.22,0.42,0.36,10.25,10.125,10.21875,354000.0,5872.701,5.2,128.6,8.28,3192.6,59.84302232267668,0.0489984383465863,9.999076197317343,0.4375,10.39274379927716,9.57913120072284,10.197916666666666,10.145833333333332,10.072916666666666,10.020833333333332,10.270833333333332,10.322916666666666,10.395833333333332,0
0.22,0.42,0.36,10.375,10.125,10.1875,525600.0,5872.701,5.2,128.6,8.28,3192.6,56.960499137826304,0.0564157369984152,10.002435384302286,0.28125,10.41438882626553,9.588736173734471,10.229166666666666,10.083333333333332,9.979166666666666,9.833333333333332,10.333333333333332,10.479166666666666,10.583333333333332,1
0.22,0.42,0.36,10.34375,10.15625,10.3125,226400.0,5872.701,5.2,128.6,8.28,3192.6,64.78851252801223,0.0640199670475096,10.00479830620296,0.3125,10.454010003675108,9.592864996324892,10.270833333333334,10.197916666666668,10.083333333333334,10.010416666666668,10.385416666666668,10.458333333333334,10.572916666666668,1
0.22,0.42,0.36,10.34375,10.21875,10.34375,513200.0,5872.701,5.2,128.6,8.28,3192.6,66.54380233381626,0.0716953968141456,10.010554123540778,0.375,10.494827326462495,9.589547673537506,10.302083333333334,10.260416666666668,10.177083333333334,10.135416666666668,10.385416666666668,10.427083333333334,10.510416666666668,1
0.25,0.35,0.4,10.46875,10.375,10.4375,852400.0,5872.701,5.2,128.6,8.28,3192.6,71.46732662718867,0.0803454126568553,10.022265800991182,0.21875,10.549292456637886,9.588207543362111,10.427083333333334,10.385416666666668,10.333333333333334,10.291666666666668,10.479166666666668,10.520833333333334,10.572916666666668,1
0.25,0.35,0.4,10.5,10.34375,10.5,419600.0,5872.701,5.2,128.6,8.28,3192.6,74.36883901925972,0.0899668595967292,10.028630817054896,0.3125,10.609127097633996,9.587747902366004,10.447916666666666,10.395833333333332,10.291666666666666,10.239583333333332,10.552083333333332,10.604166666666666,10.708333333333332,0
0.25,0.35,0.4,10.5625,10.40625,10.5,649600.0,5872.701,5.2,128.6,8.28,3192.6,74.36883901925972,0.0994877559098373,10.038156981881082,0.28125,10.64903687672417,9.622838123275832,10.489583333333334,10.416666666666668,10.333333333333334,10.260416666666668,10.572916666666668,10.645833333333334,10.729166666666668,1
0.25,0.35,0.4,10.625,10.4375,10.5625,608400.0,5872.701,5.2,128.6,8.28,3192.6,77.42518167270796,0.1092169261979382,10.047897278300908,0.28125,10.693331711510966,9.656668288489035,10.541666666666666,10.458333333333332,10.354166666666666,10.270833333333332,10.645833333333332,10.729166666666666,10.833333333333332,0
0.25,0.35,0.4,10.59375,10.5,10.5625,686000.0,5872.701,5.2,128.6,8.28,3192.6,77.42518167270796,0.1183176919283155,10.058454778453,0.21875,10.70506140068005,9.735563599319953,10.552083333333334,10.510416666666668,10.458333333333334,10.416666666666668,10.604166666666668,10.645833333333334,10.697916666666668,0
0.37,0.39,0.24,10.625,10.5,10.5625,383600.0,5872.701,5.2,128.6,8.28,3192.6,77.42518167270796,0.1262778387251293,10.064171658604662,0.4375,10.7149379021271,9.806937097872902,10.5625,10.5,10.4375,10.375,10.625,10.6875,10.75,1
0.37,0.39,0.24,10.625,10.59375,10.59375,322400.0,5872.701,5.2,128.6,8.28,3192.6,79.319322442596,0.1333165463839791,10.069172187467052,0.375,10.718748305979195,9.8843766940208,10.604166666666666,10.583333333333332,10.572916666666666,10.552083333333332,10.614583333333332,10.635416666666666,10.645833333333332,0
0.37,0.39,0.24,10.75,10.53125,10.53125,536800.0,5872.701,5.2,128.6,8.28,3192.6,66.45235338965162,0.138107726782481,10.076324451275072,0.34375,10.717701304003642,9.947923695996357,10.604166666666666,10.458333333333332,10.385416666666666,10.239583333333332,10.677083333333332,10.822916666666666,10.895833333333332,1
0.37,0.39,0.24,10.78125,10.625,10.625,157600.0,5872.701,5.2,128.6,8.28,3192.6,73.80646927356975,0.1424199900925642,10.078806547448188,0.3125,10.736463029813327,9.991661970186671,10.677083333333334,10.572916666666668,10.520833333333334,10.416666666666668,10.729166666666668,10.833333333333334,10.885416666666668,0
0.37,0.39,0.24,10.65625,10.5,10.59375,315200.0,5872.701,5.2,128.6,8.28,3192.6,68.06748827554526,0.1453828420168019,10.083423770808915,0.25,10.731136187881138,10.05948881211886,10.583333333333334,10.510416666666668,10.427083333333334,10.354166666666668,10.666666666666668,10.739583333333334,10.822916666666668,1
0.34,0.35,0.31,10.71875,10.59375,10.6875,261600.0,5872.701,5.2,128.6,8.28,3192.6,74.83963618250104,0.1485089610239305,10.087885926222937,0.25,10.767856001094197,10.069643998905802,10.666666666666666,10.614583333333332,10.541666666666666,10.489583333333332,10.739583333333332,10.791666666666666,10.864583333333332,0
0.34,0.35,0.31,10.71875,10.59375,10.6875,261600.0,5960.028,5.4,128.9,8.26,3219.8,74.83963618250104,0.1512350543891381,10.092282643428147,0.1875,10.79473545478932,10.09276454521068,10.666666666666666,10.614583333333332,10.541666666666666,10.489583333333332,10.739583333333332,10.791666666666666,10.864583333333332,0
0.34,0.35,0.31,10.59375,10.46875,10.59375,426400.0,5960.028,5.4,128.9,8.26,3219.8,58.36127732566662,0.1517270913365285,10.098205333104358,0.09375,10.802778523689332,10.122221476310669,10.552083333333334,10.510416666666668,10.427083333333334,10.385416666666668,10.635416666666668,10.677083333333334,10.760416666666668,1
0.34,0.35,0.31,10.75,10.59375,10.75,364000.0,5960.028,5.4,128.9,8.26,3219.8,70.74756110980546,0.1529401323727482,10.104711340177916,0.1875,10.83801953570816,10.13385546429184,10.697916666666666,10.645833333333332,10.541666666666666,10.489583333333332,10.802083333333332,10.854166666666666,10.958333333333332,1
0.34,0.35,0.31,10.875,10.6875,10.84375,577600.0,5960.028,5.4,128.9,8.26,3219.8,75.74305934948936,0.1556886401855425,10.11623450508039,0.28125,10.890447116929645,10.131427883070357,10.802083333333334,10.729166666666668,10.614583333333334,10.541666666666668,10.916666666666668,10.989583333333334,11.104166666666668,0
0.34,0.35,0.31,10.875,10.625,10.75,589200.0,5960.028,5.4,128.9,8.26,3219.8,63.27504966423363,0.1574048951064353,10.126156878427787,0.1875,10.88944828002286,10.194926719977142,10.75,10.625,10.5,10.375,10.875,11.0,11.125,0
0.38,0.37,0.25,10.75,10.5625,10.65625,408000.0,5960.028,5.4,128.9,8.26,3219.8,53.1752700138103,0.1565297009024053,10.131842180665377,0.0625,10.8791667799405,10.2489582200595,10.65625,10.5625,10.46875,10.375,10.75,10.84375,10.9375,0
0.38,0.37,0.25,10.6875,10.59375,10.625,296400.0,5960.028,5.4,128.9,8.26,3219.8,50.09959615668394,0.1532207773683165,10.135654898534092,0.09375,10.847098716341613,10.324776283658387,10.635416666666666,10.583333333333332,10.541666666666666,10.489583333333332,10.677083333333332,10.729166666666666,10.770833333333332,1
0.38,0.37,0.25,10.65625,10.59375,10.65625,291600.0,5960.028,5.4,128.9,8.26,3219.8,53.22153540096338,0.148709253032289,10.139584670822376,0.03125,10.8317327714293,10.3745172285707,10.635416666666666,10.614583333333332,10.572916666666666,10.552083333333332,10.677083333333332,10.697916666666666,10.739583333333332,1
0.38,0.37,0.25,10.75,10.625,10.75,211200.0,5960.028,5.4,128.9,8.26,3219.8,61.54875400223323,0.1448372513997671,10.142903853679636,0.15625,10.825681286906004,10.421193713093995,10.708333333333334,10.666666666666668,10.583333333333334,10.541666666666668,10.791666666666668,10.833333333333334,10.916666666666668,0
0.27,0.56,0.17,10.78125,10.6875,10.71875,442400.0,5960.028,5.4,128.9,8.26,3219.8,57.604736367427705,0.140740378039866,10.149388924527534,0.03125,10.823789955092584,10.451210044907414,10.729166666666666,10.677083333333332,10.635416666666666,10.583333333333332,10.770833333333332,10.822916666666666,10.864583333333332,0
0.27,0.56,0.17,10.8125,10.6875,10.6875,336000.0,5960.028,5.4,128.9,8.26,3219.8,53.63879318932576,0.1358979730200415,10.153952502826913,0.0,10.822601873899533,10.471148126100466,10.729166666666666,10.645833333333332,10.604166666666666,10.520833333333332,10.770833333333332,10.854166666666666,10.895833333333332,1
0.27,0.56,0.17,10.75,10.5625,10.71875,260000.0,5960.028,5.4,128.9,8.26,3219.8,57.05066455706782,0.1310309666006889,10.157634807117494,0.125,10.821892621234069,10.493732378765932,10.677083333333334,10.604166666666668,10.489583333333334,10.416666666666668,10.791666666666668,10.864583333333334,10.979166666666668,1
0.27,0.56,0.17,10.84375,10.75,10.84375,209200.0,5960.028,5.4,128.9,8.26,3219.8,67.94014892159282,0.128099332936149,10.161215276738409,0.09375,10.84923224429873,10.49451775570127,10.8125,10.78125,10.71875,10.6875,10.875,10.90625,10.96875,1
0.27,0.56,0.17,11.1875,10.71875,11.15625,1259200.0,5960.028,5.4,128.9,8.26,3219.8,81.48298750850525,0.1312282251950776,10.191518068763362,0.3125,10.974728483616628,10.428396516383373,11.020833333333334,10.854166666666668,10.552083333333334,10.385416666666668,11.322916666666668,11.489583333333334,11.791666666666668,1
0.34,0.43,0.23,11.5625,11.1875,11.34375,1464800.0,5960.028,5.4,128.9,8.26,3219.8,85.67290521262524,0.1406840733099687,10.230940977380383,0.59375,11.129142340261907,10.352107659738092,11.364583333333334,11.166666666666668,10.989583333333334,10.791666666666668,11.541666666666668,11.739583333333334,11.916666666666668,0
0.34,0.43,0.23,11.375,11.03125,11.03125,863200.0,5960.028,5.4,128.9,8.26,3219.8,59.69645629676366,0.1483034411523517,10.246758201375595,0.375,11.165204671727995,10.359795328272002,11.145833333333334,10.916666666666668,10.802083333333334,10.572916666666668,11.260416666666668,11.489583333333334,11.604166666666668,1
0.34,0.43,0.23,11.3125,11.03125,11.25,700000.0,5960.028,5.4,128.9,8.26,3219.8,67.62497926595447,0.157524333834696,10.262583773515177,0.625,11.240600153895572,10.356274846104428,11.197916666666666,11.083333333333332,10.916666666666666,10.802083333333332,11.364583333333332,11.479166666666666,11.645833333333332,1
0.34,0.43,0.23,11.375,11.25,11.28125,563600.0,5960.028,5.4,128.9,8.26,3219.8,68.64181282310378,0.1674052025066947,10.275359263182256,0.625,11.314692970021422,10.34780702997858,11.302083333333334,11.229166666666668,11.177083333333334,11.104166666666668,11.354166666666668,11.427083333333334,11.479166666666668,1
0.34,0.43,0.23,11.5,11.28125,11.5,467600.0,5960.028,5.4,128.9,8.26,3219.8,74.98708282487439,0.1802902380509267,10.287970634354323,0.75,11.430953984208708,10.322171015791293,11.427083333333334,11.354166666666668,11.208333333333334,11.135416666666668,11.572916666666668,11.645833333333334,11.791666666666668,0
0.28,0.35,0.37,11.5,11.34375,11.375,419200.0,5960.028,5.4,128.9,8.26,3219.8,66.16022753121783,0.1919775524197649,10.2979143935757,0.65625,11.500134028623584,10.321740971376416,11.40625,11.3125,11.25,11.15625,11.46875,11.5625,11.625,0
0.28,0.35,0.37,11.28125,11.125,11.1875,686000.0,5960.028,5.4,128.9,8.26,3219.8,54.96260074436201,0.1988724813615113,10.311034786721706,0.5,11.527641036965829,10.344233963034172,11.197916666666666,11.114583333333332,11.041666666666666,10.958333333333332,11.270833333333332,11.354166666666666,11.427083333333332,1
0.28,0.35,0.37,11.28125,11.09375,11.28125,733200.0,5960.028,5.4,129.1,8.18,3186.7,58.96904021210284,0.2034446482759713,10.326091592373404,0.5625,11.558181575000615,10.382443424999384,11.21875,11.15625,11.03125,10.96875,11.34375,11.40625,11.53125,0
0.28,0.35,0.37,11.3125,11.0625,11.125,952000.0,5960.028,5.4,129.1,8.18,3186.7,50.35470116135038,0.2033647034073833,10.341871778858524,0.28125,11.571238474368192,10.406886525631808,11.166666666666666,11.020833333333332,10.916666666666666,10.770833333333332,11.270833333333332,11.416666666666666,11.520833333333332,1
0.28,0.35,0.37,11.3125,11.125,11.28125,1052400.0,5960.028,5.4,129.1,8.18,3186.7,57.51570948617065,0.2024024640390392,10.3619450716351,0.125,11.6029189380758,10.418956061924202,11.239583333333334,11.166666666666668,11.052083333333334,10.979166666666668,11.354166666666668,11.427083333333334,11.541666666666668,1
0.2,0.35,0.45,11.34375,11.09375,11.34375,731600.0,5960.028,5.4,129.1,8.18,3186.7,60.16751316453876,0.2014734965886435,10.376316244908086,0.0,11.637043863321988,10.444206136678014,11.260416666666666,11.177083333333332,11.010416666666666,10.927083333333332,11.427083333333332,11.510416666666666,11.677083333333332,1
0.2,0.35,0.45,11.5,11.28125,11.46875,1931600.0,5960.028,5.4,129.1,8.18,3186.7,65.18268863312306,0.2021491844823078,10.41696412060224,0.4375,11.678116819315644,10.484383180684356,11.416666666666666,11.333333333333332,11.197916666666666,11.114583333333332,11.552083333333332,11.635416666666666,11.770833333333332,0
0.2,0.35,0.45,11.46875,11.25,11.28125,1156000.0,5960.028,5.4,129.1,8.18,3186.7,53.51988312237445,0.2003430267089174,10.435790897853352,0.03125,11.676480257145526,10.551644742854473,11.333333333333334,11.197916666666668,11.114583333333334,10.979166666666668,11.416666666666668,11.552083333333334,11.635416666666668,1
0.2,0.35,0.45,11.53125,11.34375,11.46875,622000.0,5960.028,5.4,129.1,8.18,3186.7,61.47370583234185,0.1996108086361292,10.447757576717054,0.1875,11.694803152210827,10.61457184778917,11.447916666666666,11.364583333333332,11.260416666666666,11.177083333333332,11.552083333333332,11.635416666666666,11.739583333333332,0
0.2,0.35,0.45,11.59375,11.40625,11.40625,830800.0,5960.028,5.4,129.1,8.18,3186.7,57.677565423381495,0.1981379948361697,10.46236308178777,-0.09375,11.703286956223687,10.671713043776313,11.46875,11.34375,11.28125,11.15625,11.53125,11.65625,11.71875,1
0.28,0.38,0.34,11.625,11.46875,11.5625,1064000.0,5960.028,5.4,129.1,8.18,3186.7,64.0766470938676,0.1983194782386962,10.48342151564434,0.1875,11.72151002027265,10.737864979727352,11.552083333333334,11.479166666666668,11.395833333333334,11.322916666666668,11.635416666666668,11.708333333333334,11.791666666666668,0
0.28,0.38,0.34,11.8125,11.53125,11.53125,1062800.0,5960.028,5.4,129.1,8.18,3186.7,61.91626935267946,0.1985777437134436,10.503080184082869,0.34375,11.709656864090196,10.834093135909804,11.625,11.4375,11.34375,11.15625,11.71875,11.90625,12.0,1
0.28,0.38,0.34,11.6875,11.46875,11.6875,609600.0,5960.028,5.4,129.1,8.18,3186.7,68.11776669632168,0.2009108746474007,10.515690165566385,0.40625,11.712398583291025,10.928226416708975,11.614583333333334,11.541666666666668,11.395833333333334,11.322916666666668,11.760416666666668,11.833333333333334,11.979166666666668,1
0.28,0.38,0.34,11.84375,11.5625,11.84375,656400.0,5960.028,5.4,129.1,8.18,3186.7,73.16063102985567,0.2064571454449567,10.530742354233144,0.71875,11.761558716561456,10.979066283438543,11.75,11.65625,11.46875,11.375,11.9375,12.03125,12.21875,0
0.28,0.38,0.34,11.9375,11.78125,11.84375,724800.0,5960.028,5.4,129.1,8.18,3186.7,73.16063102985567,0.213256047783712,10.546971565096388,0.5625,11.835546399696105,10.973828600303897,11.854166666666666,11.770833333333332,11.697916666666666,11.614583333333332,11.927083333333332,12.010416666666666,12.083333333333332,1
0.37,0.35,0.28,11.9375,11.78125,11.9375,454800.0,5960.028,5.4,129.1,8.18,3186.7,76.17137974216242,0.2214933384352982,10.557673367854605,0.59375,11.925203716506417,10.943546283493582,11.885416666666666,11.833333333333332,11.729166666666666,11.677083333333332,11.989583333333332,12.041666666666666,12.145833333333332,1
0.37,0.35,0.28,12.125,11.8125,12.0625,902800.0,5960.028,5.4,129.1,8.18,3186.7,79.67845837243024,0.2316898445002327,10.58031720025068,0.59375,12.013731989386052,10.958143010613949,12.0,11.875,11.6875,11.5625,12.1875,12.3125,12.5,1
0.37,0.35,0.28,12.25,12.03125,12.125,732000.0,5960.028,5.4,129.1,8.18,3186.7,81.26893397862784,0.2430489141085907,10.598936171964535,0.84375,12.11685670978626,10.94251829021374,12.135416666666666,12.020833333333332,11.916666666666666,11.802083333333332,12.239583333333332,12.354166666666666,12.458333333333332,0
0.37,0.35,0.28,12.21875,12.09375,12.125,385600.0,5960.028,5.4,129.1,8.18,3186.7,81.26893397862784,0.2539872371855315,10.608564839055935,0.65625,12.203452234098528,10.940297765901471,12.145833333333334,12.072916666666668,12.020833333333334,11.947916666666668,12.197916666666668,12.270833333333334,12.322916666666668,0
0.37,0.35,0.28,12.15625,12.03125,12.09375,226000.0,5960.028,5.4,129.1,8.18,3186.7,77.24450935029788,0.2630109757289225,10.614036793043413,0.6875,12.273447062355428,10.929677937644572,12.09375,12.03125,11.96875,11.90625,12.15625,12.21875,12.28125,1
0.39,0.32,0.29,12.25,12.09375,12.15625,314400.0,5960.028,5.4,129.1,8.18,3186.7,79.57823795256999,0.2707593462746996,10.62190109285895,0.59375,12.347004529342158,10.934245470657842,12.166666666666666,12.083333333333332,12.010416666666666,11.927083333333332,12.239583333333332,12.322916666666666,12.395833333333332,1
0.39,0.32,0.29,12.375,12.125,12.375,158400.0,5960.028,5.4,129.1,8.18,3186.7,85.55920294658124,0.2801750716508554,10.626393513036051,0.84375,12.444607809167785,10.955392190832214,12.291666666666666,12.208333333333332,12.041666666666666,11.958333333333332,12.458333333333332,12.541666666666666,12.708333333333332,1
0.39,0.32,0.29,12.46875,12.375,12.4375,497200.0,5960.028,5.4,129.1,8.18,3186.7,86.83071400248626,0.2905008501849641,10.640845067597064,0.75,12.543915845874256,10.971709154125744,12.427083333333334,12.385416666666668,12.333333333333334,12.291666666666668,12.479166666666668,12.520833333333334,12.572916666666668,0
0.39,0.32,0.29,12.4375,12.3125,12.4375,395200.0,5960.028,5.4,129.1,8.18,3186.7,86.83071400248625,0.3001936278346681,10.652168426743383,0.59375,12.606238591812009,11.040636408187996,12.395833333333334,12.354166666666668,12.270833333333334,12.229166666666668,12.479166666666668,12.520833333333334,12.604166666666668,1
0.37,0.28,0.35,12.6875,12.46875,12.53125,550800.0,5960.028,5.2,129.9,8.29,3210.8,88.80009748561385,0.309793065867303,10.668530377953852,0.6875,12.685884815288205,11.0859901847118,12.5625,12.4375,12.34375,12.21875,12.65625,12.78125,12.875,1
0.37,0.28,0.35,12.71875,12.375,12.6875,391200.0,5960.028,5.2,129.9,8.29,3210.8,91.30161408930418,0.3206175784633294,10.680939658368894,0.75,12.786362384827184,11.119887615172816,12.59375,12.46875,12.25,12.125,12.8125,12.9375,13.15625,0
0.37,0.28,0.35,12.6875,12.4375,12.5,506800.0,5960.028,5.2,129.9,8.29,3210.8,69.73548783107819,0.3279202999180698,10.695309674784582,0.4375,12.839348585884222,11.170026414115776,12.541666666666666,12.395833333333332,12.291666666666666,12.145833333333332,12.645833333333332,12.791666666666666,12.895833333333332,0
0.37,0.28,0.35,12.40625,12.28125,12.375,696800.0,5960.028,5.2,129.9,8.29,3210.8,59.01294845908508,0.3298911114987801,10.713357270181586,0.25,12.83574793500642,11.28300206499358,12.354166666666666,12.302083333333332,12.229166666666666,12.177083333333332,12.427083333333332,12.479166666666666,12.552083333333332,0
0.37,0.28,0.35,12.40625,12.0,12.0,719600.0,5960.028,5.2,129.9,8.29,3210.8,38.513999682419815,0.3216818775109126,10.72747739847615,-0.125,12.81194491033985,11.35993008966015,12.135416666666666,11.864583333333332,11.729166666666666,11.458333333333332,12.270833333333332,12.541666666666666,12.677083333333332,0
0.35,0.35,0.3,12.0625,11.75,11.75,1714800.0,5960.028,5.2,129.9,8.29,3210.8,30.392926207805942,0.302800547734672,10.753536789446777,-0.34375,12.775690052615698,11.430559947384303,11.854166666666666,11.645833333333332,11.541666666666666,11.333333333333332,11.958333333333332,12.166666666666666,12.270833333333332,1
0.35,0.35,0.3,12.125,11.78125,12.125,444800.0,5960.028,5.2,129.9,8.29,3210.8,49.00395806874136,0.2835127078622856,10.762543481213754,-0.03125,12.753811030616324,11.508688969383677,12.010416666666666,11.895833333333332,11.666666666666666,11.552083333333332,12.239583333333332,12.354166666666666,12.583333333333332,0
0.35,0.35,0.3,12.15625,11.9375,12.125,530000.0,5960.028,5.2,129.9,8.29,3210.8,49.00395806874136,0.2643349929648564,10.773122117655332,-0.25,12.715996099917216,11.605878900082784,12.072916666666666,11.989583333333332,11.854166666666666,11.770833333333332,12.208333333333332,12.291666666666666,12.427083333333332,0
0.35,0.35,0.3,12.125,11.90625,11.90625,254000.0,5960.028,5.2,129.9,8.29,3210.8,40.57798349328869,0.2421391283643832,10.777322905841691,-0.53125,12.695376935350522,11.648373064649478,11.979166666666666,11.833333333333332,11.760416666666666,11.614583333333332,12.052083333333332,12.197916666666666,12.270833333333332,1
0.35,0.35,0.3,11.96875,11.84375,11.96875,195600.0,5960.028,5.2,129.9,8.29,3210.8,43.76563365929082,0.2196603568445012,10.78071459758405,-0.46875,12.687938239798298,11.668311760201702,11.927083333333334,11.885416666666668,11.802083333333334,11.760416666666668,12.010416666666668,12.052083333333334,12.135416666666668,0
0.43,0.32,0.25,11.84375,11.75,11.75,672000.0,5960.028,5.2,129.9,8.29,3210.8,35.97253370413442,0.1941919602198335,10.790102620276151,-0.78125,12.697714492754338,11.649160507245664,11.78125,11.71875,11.6875,11.625,11.8125,11.875,11.90625,0
0.43,0.32,0.25,11.84375,11.71875,11.75,354000.0,5960.028,5.2,129.9,8.29,3210.8,35.97253370413442,0.1677422171754086,10.79497533555122,-0.9375,12.71226343019656,11.61586156980344,11.770833333333334,11.697916666666668,11.645833333333334,11.572916666666668,11.822916666666668,11.895833333333334,11.947916666666668,1
0.43,0.32,0.25,12.0,11.75,12.0,454800.0,5960.028,5.2,129.9,8.29,3210.8,49.62175364882877,0.1456702099883353,10.802783270742037,-0.5,12.712279687064251,11.609595312935744,11.916666666666666,11.833333333333332,11.666666666666666,11.583333333333332,12.083333333333332,12.166666666666666,12.333333333333332,0
0.43,0.32,0.25,12.0625,11.8125,11.84375,392000.0,5960.028,5.2,129.9,8.29,3210.8,43.00970680166558,0.1246742445473271,10.808564551137104,-0.53125,12.716132653717317,11.577617346282684,11.90625,11.75,11.65625,11.5,12.0,12.15625,12.25,1
0.43,0.32,0.25,11.9375,11.78125,11.875,456000.0,5960.028,5.2,129.9,8.29,3210.8,44.70986512295439,0.1056677821052106,10.815410029448696,-0.125,12.716489170841676,11.552260829158325,11.864583333333334,11.791666666666668,11.708333333333334,11.635416666666668,11.947916666666668,12.020833333333334,12.104166666666668,1
0.34,0.32,0.34,12.0625,11.84375,11.90625,947200.0,5960.028,5.2,129.9,8.29,3210.8,46.5497314555366,0.0891623890163905,10.829763426221763,0.15625,12.71584295268438,11.53415704731562,11.9375,11.8125,11.71875,11.59375,12.03125,12.15625,12.25,1
0.34,0.32,0.34,12.0,11.84375,11.96875,474400.0,5960.028,5.2,129.9,8.29,3210.8,50.361570530370216,0.0758837896009217,10.837220399004146,-0.15625,12.710317811015605,11.520932188984396,11.9375,11.875,11.78125,11.71875,12.03125,12.09375,12.1875,1
0.34,0.32,0.34,12.40625,12.0625,12.3125,765600.0,5960.028,5.2,129.9,8.29,3210.8,65.82740167242068,0.0706351440478497,10.85264489389015,0.1875,12.702088951371126,11.522911048628876,12.260416666666666,12.114583333333332,11.916666666666666,11.770833333333332,12.458333333333332,12.604166666666666,12.802083333333332,0
0.34,0.32,0.34,11.9375,11.375,11.59375,2597600.0,5960.028,5.2,129.9,8.29,3210.8,37.57938510678776,0.0590664324339959,10.878034015794556,-0.3125,12.682307122331858,11.458317877668142,11.635416666666666,11.333333333333332,11.072916666666666,10.770833333333332,11.895833333333332,12.197916666666666,12.458333333333332,1
0.34,0.32,0.34,11.9375,11.625,11.9375,1344800.0,5960.028,5.2,129.9,8.29,3210.8,49.530824465973055,0.0494925829693604,10.896497141316912,-0.03125,12.63457881176758,11.45604618823242,11.833333333333334,11.729166666666668,11.520833333333334,11.416666666666668,12.041666666666668,12.145833333333334,12.354166666666668,1
0.31,0.31,0.38,12.125,11.875,12.0,2169600.0,5960.028,5.2,129.9,8.29,3210.8,51.47977231051863,0.0425552988511688,10.926673851118002,0.25,12.561873883319024,11.475626116680976,12.0,11.875,11.75,11.625,12.125,12.25,12.375,0
0.31,0.31,0.38,12.125,11.875,12.0,2169600.0,6015.116,5.5,130.5,8.15,3224.5,51.47977231051863,0.0375372345760297,10.955244050861516,0.25,12.42701399095736,11.54173600904264,12.0,11.875,11.75,11.625,12.125,12.25,12.375,1
0.31,0.31,0.38,12.09375,11.90625,12.0625,419200.0,6015.116,5.5,130.5,8.15,3224.5,53.85234464028783,0.03489675138486,10.960909616877505,0.0625,12.335631308903675,11.589368691096324,12.020833333333334,11.947916666666668,11.833333333333334,11.760416666666668,12.135416666666668,12.208333333333334,12.322916666666668,1
0.31,0.31,0.38,12.1875,11.96875,12.1875,668000.0,6015.116,5.5,130.5,8.15,3224.5,58.53174586839203,0.0357996736868042,10.97082988275291,0.34375,12.290308087076571,11.615941912923429,12.114583333333334,12.041666666666668,11.895833333333334,11.822916666666668,12.260416666666668,12.333333333333334,12.479166666666668,0
0.31,0.31,0.38,12.1875,12.0,12.09375,941200.0,6015.116,5.5,130.5,8.15,3224.5,53.809898074866034,0.0372988800319957,10.98348182220839,0.21875,12.300304216188662,11.615320783811336,12.09375,12.0,11.90625,11.8125,12.1875,12.28125,12.375,0
0.28,0.34,0.38,12.03125,11.90625,11.90625,328400.0,6015.116,5.5,130.5,8.15,3224.5,45.364591620228985,0.0360167701057834,10.987095239457982,0.0,12.29503585768058,11.63621414231942,11.947916666666666,11.864583333333332,11.822916666666666,11.739583333333332,11.989583333333332,12.072916666666666,12.114583333333332,1
0.28,0.34,0.38,12.0625,11.875,11.96875,722400.0,6015.116,5.5,130.5,8.15,3224.5,48.474868181375584,0.0339736568372599,10.995478904509923,0.0,12.27860702658896,11.63701797341104,11.96875,11.875,11.78125,11.6875,12.0625,12.15625,12.25,0
0.28,0.34,0.38,12.03125,11.90625,11.9375,738400.0,6015.116,5.5,130.5,8.15,3224.5,46.933433754749736,0.0309846564558094,11.003631107808712,-0.375,12.259470239645747,11.637404760354253,11.958333333333334,11.885416666666668,11.833333333333334,11.760416666666668,12.010416666666668,12.083333333333334,12.135416666666668,1
0.28,0.34,0.38,12.15625,11.9375,12.125,1086400.0,6015.116,5.5,130.5,8.15,3224.5,56.50796107598548,0.030480313387778,11.0177293904985,0.53125,12.27941560186493,11.63933439813507,12.072916666666666,11.989583333333332,11.854166666666666,11.770833333333332,12.208333333333332,12.291666666666666,12.427083333333332,1
0.28,0.34,0.38,12.1875,12.03125,12.1875,436400.0,6015.116,5.5,130.5,8.15,3224.5,59.33020770133998,0.0324874240824064,11.023607336956522,0.25,12.306258606070855,11.634366393929144,12.135416666666666,12.083333333333332,11.979166666666666,11.927083333333332,12.239583333333332,12.291666666666666,12.395833333333332,1
0.4,0.3,0.3,12.53125,12.21875,12.5,960800.0,6015.116,5.5,130.5,8.15,3224.5,70.40844925497787,0.040875158856061,11.039761960076897,0.5,12.40251164841955,11.61311335158045,12.416666666666666,12.302083333333332,12.104166666666666,11.989583333333332,12.614583333333332,12.729166666666666,12.927083333333332,0
0.4,0.3,0.3,12.4375,12.28125,12.4375,465600.0,6015.116,5.5,130.5,8.15,3224.5,66.24430896543099,0.0517321325199312,11.047134276755209,0.4375,12.46133989895841,11.62303510104159,12.385416666666666,12.333333333333332,12.229166666666666,12.177083333333332,12.489583333333332,12.541666666666666,12.645833333333332,0
0.4,0.3,0.3,12.4375,12.34375,12.375,518800.0,6015.116,5.5,130.5,8.15,3224.5,62.01248480505403,0.0624525777918249,11.054892717009862,0.3125,12.504956136255352,11.616918863744647,12.385416666666666,12.333333333333332,12.291666666666666,12.239583333333332,12.427083333333332,12.479166666666666,12.520833333333332,0
0.4,0.3,0.3,12.34375,12.125,12.34375,638400.0,6015.116,5.5,130.5,8.15,3224.5,59.808249069238784,0.0718845487005534,11.064093116974313,0.15625,12.534745772129131,11.637129227870869,12.270833333333334,12.197916666666668,12.052083333333334,11.979166666666668,12.416666666666668,12.489583333333334,12.635416666666668,1
0.4,0.3,0.3,12.78125,12.125,12.78125,1089200.0,6015.116,5.5,130.5,8.15,3224.5,74.46828073362897,0.0868307068925366,11.084754967918975,0.6875,12.665288733071872,11.597211266928127,12.5625,12.34375,11.90625,11.6875,13.0,13.21875,13.65625,1
0.4,0.3,0.3,13.8125,12.8125,13.5,2156400.0,6015.116,5.5,130.5,8.15,3224.5,84.90521034580752,0.1157188802585073,11.140952548199555,1.59375,13.012322762414868,11.409552237585132,13.375,12.9375,12.375,11.9375,13.9375,14.375,14.9375,0
0.4,0.3,0.3,13.4375,13.0,13.28125,1291200.0,6015.116,5.5,130.5,8.15,3224.5,74.24688350775051,0.1480774976248672,11.170361924859847,1.3125,13.20009329444566,11.353031705554342,13.239583333333334,13.041666666666668,12.802083333333334,12.604166666666668,13.479166666666668,13.677083333333334,13.916666666666668,0
0.4,0.3,0.3,13.34375,13.0625,13.25,758000.0,6015.116,5.5,130.5,8.15,3224.5,72.74170491134757,0.180078955795913,11.187003174405444,1.3125,13.344650618576424,11.302224381423576,13.21875,13.09375,12.9375,12.8125,13.375,13.5,13.65625,0
0.4,0.3,0.3,13.3125,13.03125,13.15625,245200.0,6015.116,5.5,130.5,8.15,3224.5,67.97182036172552,0.2082728213232176,11.19208742402992,1.03125,13.426794141027097,11.376330858972905,13.166666666666666,13.020833333333332,12.885416666666666,12.739583333333332,13.302083333333332,13.447916666666666,13.583333333333332,0
0.4,0.3,0.3,13.15625,12.9375,13.0,606800.0,6015.116,5.5,130.5,8.15,3224.5,60.36028405986183,0.229634619145724,11.203565345308144,0.8125,13.48874468404176,11.42063031595824,13.03125,12.90625,12.8125,12.6875,13.125,13.25,13.34375,0
0.52,0.24,0.24,13.125,12.71875,12.78125,791200.0,6015.116,5.5,130.5,8.15,3224.5,51.1141442021697,0.2415809763120874,11.216518227739869,0.28125,13.514424441626431,11.47307555837357,12.875,12.625,12.46875,12.21875,13.03125,13.28125,13.4375,1
0.52,0.24,0.24,13.25,12.6875,13.25,505600.0,6015.116,5.5,130.5,8.15,3224.5,64.54329797434889,0.2539276904663075,11.227131143987316,0.8125,13.602389519728032,11.510110480271967,13.0625,12.875,12.5,12.3125,13.4375,13.625,14.0,1
0.52,0.24,0.24,13.375,13.15625,13.34375,608400.0,6015.116,5.5,130.5,8.15,3224.5,66.65701938602467,0.2667950793912335,11.240341067625732,0.96875,13.695655736207794,11.544969263792208,13.291666666666666,13.208333333333332,13.072916666666666,12.989583333333332,13.427083333333332,13.510416666666666,13.645833333333332,0
0.52,0.24,0.24,13.46875,13.25,13.28125,324400.0,6015.116,5.7,131.6,8.13,3238.7,63.73435046771753,0.2777090564353154,11.24711015458858,0.9375,13.768754699238004,11.581245300761998,13.333333333333334,13.197916666666668,13.114583333333334,12.979166666666668,13.416666666666668,13.552083333333334,13.635416666666668,0
0.52,0.24,0.24,13.34375,13.09375,13.15625,790400.0,6015.116,5.7,131.6,8.13,3238.7,57.87802338759378,0.2841992869365343,11.2624145016552,0.375,13.806108161913198,11.650141838086803,13.197916666666666,13.052083333333332,12.947916666666666,12.802083333333332,13.302083333333332,13.447916666666666,13.552083333333332,0
0.26,0.28,0.46,13.03125,12.3125,12.5,2496000.0,6015.116,5.7,131.6,8.13,3238.7,37.1818527328224,0.2764587370668083,11.292970233761713,-1.0,13.77126538981204,11.74435961018796,12.614583333333334,12.197916666666668,11.895833333333334,11.479166666666668,12.916666666666668,13.333333333333334,13.635416666666668,0
0.26,0.28,0.46,12.25,11.8125,12.25,966400.0,6015.116,5.7,131.6,8.13,3238.7,32.13145785888452,0.2555856727991955,11.302032220010034,-1.03125,13.74628018293278,11.79746981706722,12.104166666666666,11.958333333333332,11.666666666666666,11.520833333333332,12.395833333333332,12.541666666666666,12.833333333333332,1
0.26,0.28,0.46,12.4375,12.25,12.375,1298000.0,6015.116,5.7,131.6,8.13,3238.7,37.06337393199989,0.2289873739924076,11.3155067589794,-0.875,13.707011218179952,11.880488781820048,12.354166666666666,12.270833333333332,12.166666666666666,12.083333333333332,12.458333333333332,12.541666666666666,12.645833333333332,1
0.26,0.28,0.46,12.625,12.4375,12.5,1368400.0,6015.116,5.7,131.6,8.13,3238.7,41.93226388259638,0.2016673293173365,11.33098373679426,-0.65625,13.682315467423049,11.942684532576951,12.520833333333334,12.416666666666668,12.333333333333334,12.229166666666668,12.604166666666668,12.708333333333334,12.791666666666668,1
0.26,0.28,0.46,12.6875,12.46875,12.625,1104000.0,6015.116,5.7,131.6,8.13,3238.7,46.69083222030074,0.1768617315583479,11.344482534451087,-0.375,13.65883155945053,12.00991844054947,12.59375,12.5,12.375,12.28125,12.71875,12.8125,12.9375,0
0.25,0.21,0.54,12.75,12.4375,12.4375,676800.0,6015.116,5.7,131.6,8.13,3238.7,40.89108323808807,0.1515379341841368,11.35142806174184,-0.34375,13.661496475768653,12.001003524231349,12.541666666666666,12.333333333333332,12.229166666666666,12.020833333333332,12.645833333333332,12.854166666666666,12.958333333333332,0
0.25,0.21,0.54,12.4375,12.0625,12.21875,850000.0,6015.116,5.7,131.6,8.13,3238.7,35.03306853324028,0.1233814405392396,11.35829502691928,-1.03125,13.677719037410748,11.962905962589252,12.239583333333334,12.041666666666668,11.864583333333334,11.666666666666668,12.416666666666668,12.614583333333334,12.791666666666668,0
0.25,0.21,0.54,12.28125,12.125,12.15625,789200.0,6015.116,5.7,131.6,8.13,3238.7,33.4531360050927,0.0936471154159489,11.364118072405018,-1.1875,13.695790200622534,11.922959799377464,12.1875,12.09375,12.03125,11.9375,12.25,12.34375,12.40625,0
0.25,0.21,0.54,12.25,12.0,12.0,708400.0,6015.116,5.7,131.6,8.13,3238.7,29.602153201960547,0.0617762403345078,11.368256203631232,-1.28125,13.728540965578013,11.85583403442199,12.083333333333334,11.916666666666668,11.833333333333334,11.666666666666668,12.166666666666668,12.333333333333334,12.416666666666668,0
0.25,0.21,0.54,11.96875,11.5625,11.625,978800.0,6015.116,5.7,131.6,8.13,3238.7,22.44658445884795,0.0241132345363655,11.370544201088183,-1.53125,13.806506270193283,11.662243729806717,11.71875,11.46875,11.3125,11.0625,11.875,12.125,12.28125,0
0.18,0.23,0.59,11.5625,11.1875,11.53125,816800.0,6015.116,5.7,131.6,8.13,3238.7,20.983445504172565,-0.0167564950185221,11.371730491851872,-0.96875,13.771718264090897,11.500156735909105,11.427083333333334,11.291666666666668,11.052083333333334,10.916666666666668,11.666666666666668,11.802083333333334,12.041666666666668,1
0.18,0.23,0.59,11.875,11.4375,11.71875,673600.0,6015.116,5.7,131.6,8.13,3238.7,31.31519522055038,-0.0544640337091908,11.373830224711837,-0.53125,13.721312176282929,11.394312823717073,11.677083333333334,11.479166666666668,11.239583333333334,11.041666666666668,11.916666666666668,12.114583333333334,12.354166666666668,0
0.18,0.23,0.59,11.6875,11.34375,11.4375,595600.0,6015.116,5.7,131.6,8.13,3238.7,25.53621204287916,-0.0925759258784812,11.374169052290735,-0.9375,13.684772976033337,11.249602023966665,11.489583333333334,11.291666666666668,11.145833333333334,10.947916666666668,11.635416666666668,11.833333333333334,11.979166666666668,0
0.18,0.23,0.59,11.5625,11.1875,11.3125,822800.0,6015.116,5.7,131.6,8.13,3238.7,23.328471747279536,-0.1307266733431537,11.37371899147798,-1.1875,13.6507221896883,11.0992778103117,11.354166666666666,11.145833333333332,10.979166666666666,10.770833333333332,11.520833333333332,11.729166666666666,11.895833333333332,0
0.18,0.23,0.59,11.0625,10.96875,11.03125,804000.0,6015.116,5.7,131.6,8.13,3238.7,19.05218577100682,-0.1710910762863434,11.37129405216509,-1.59375,13.649359029897989,10.903765970102013,11.020833333333334,10.979166666666668,10.927083333333334,10.885416666666668,11.072916666666668,11.114583333333334,11.166666666666668,1
0.25,0.24,0.51,11.25,11.09375,11.21875,444800.0,6015.116,5.7,131.6,8.13,3238.7,29.05574064359658,-0.207345582734063,11.370698820969892,-1.21875,13.62701032366002,10.76986467633998,11.1875,11.125,11.03125,10.96875,11.28125,11.34375,11.4375,1
0.25,0.24,0.51,11.6875,11.40625,11.59375,301200.0,6015.116,5.7,131.6,8.13,3238.7,44.79841981174295,-0.2326680760369712,11.371286633850485,-0.625,13.47802238870008,10.753227611299918,11.5625,11.4375,11.28125,11.15625,11.71875,11.84375,12.0,1
0.25,0.24,0.51,11.75,11.5,11.65625,325200.0,6015.116,5.7,131.6,8.13,3238.7,47.05765386287499,-0.2482836997402742,11.372095143537162,-0.5,13.277461363757311,10.785038636242689,11.635416666666666,11.520833333333332,11.385416666666666,11.270833333333332,11.770833333333332,11.885416666666666,12.020833333333332,0
0.25,0.24,0.51,11.6875,11.5,11.5625,467200.0,6015.116,5.7,131.6,8.13,3238.7,43.94481579237972,-0.2579264865551265,11.372868108607854,-0.4375,13.058532070659789,10.832092929340211,11.583333333333334,11.479166666666668,11.395833333333334,11.291666666666668,11.666666666666668,11.770833333333334,11.854166666666668,0
0.25,0.24,0.51,11.5,11.25,11.28125,684400.0,6015.116,5.7,131.6,8.13,3238.7,35.757177472903834,-0.2672194369537491,11.372326487863868,-0.34375,12.844728912554451,10.858396087445549,11.34375,11.1875,11.09375,10.9375,11.4375,11.59375,11.6875,1
0.23,0.16,0.61,11.46875,11.1875,11.46875,359600.0,6015.116,5.7,131.6,8.13,3238.7,43.81030090439142,-0.2722054647071634,11.372625067166338,-0.0625,12.75787078845134,10.84212921154866,11.375,11.28125,11.09375,11.0,11.5625,11.65625,11.84375,0
0.23,0.16,0.61,11.46875,11.1875,11.46875,359600.0,6015.116,5.9,132.5,8.2,3249.0,43.81030090439142,-0.273610209656092,11.37292180305127,-0.25,12.705162284719677,10.816712715280325,11.375,11.28125,11.09375,11.0,11.5625,11.65625,11.84375,0
0.23,0.16,0.61,11.5,11.28125,11.40625,565600.0,6015.116,5.9,132.5,8.2,3249.0,41.50154224789863,-0.2730701748563826,11.373082842395188,-0.03125,12.622875139564352,10.802124860435647,11.395833333333334,11.291666666666668,11.177083333333334,11.072916666666668,11.510416666666668,11.614583333333334,11.729166666666668,0
0.23,0.16,0.61,11.46875,11.34375,11.375,239200.0,6015.116,5.9,132.5,8.2,3249.0,40.2769902760449,-0.2712156926370982,11.37308675209303,0.0625,12.498201054959456,10.814298945040544,11.395833333333334,11.322916666666668,11.270833333333334,11.197916666666668,11.447916666666668,11.520833333333334,11.572916666666668,0
0.23,0.16,0.61,11.4375,11.3125,11.375,517200.0,6015.116,5.9,132.5,8.2,3249.0,40.2769902760449,-0.26801639983781,11.373095151394772,0.34375,12.30895148062956,10.87854851937044,11.375,11.3125,11.25,11.1875,11.4375,11.5,11.5625,0
0.33,0.18,0.49,11.46875,11.21875,11.34375,344800.0,6015.116,5.9,132.5,8.2,3249.0,38.75457957012086,-0.2640296299446065,11.373009517079115,0.125,12.140894612343091,10.937230387656909,11.34375,11.21875,11.09375,10.96875,11.46875,11.59375,11.71875,0
0.33,0.18,0.49,11.5,11.3125,11.34375,481600.0,6015.116,5.9,132.5,8.2,3249.0,38.75457957012086,-0.2591565007961833,11.37289074037236,-0.25,12.010012128168531,10.98061287183147,11.385416666666666,11.270833333333332,11.197916666666666,11.083333333333332,11.458333333333332,11.572916666666666,11.645833333333332,0
0.33,0.18,0.49,11.3125,11.125,11.15625,603200.0,6015.116,5.9,132.5,8.2,3249.0,29.76677424951363,-0.2563840592248139,11.37179482609979,-0.5,11.877315085122609,11.013309914877391,11.197916666666666,11.083333333333332,11.010416666666666,10.895833333333332,11.270833333333332,11.385416666666666,11.458333333333332,1
0.33,0.18,0.49,11.21875,11.0625,11.21875,537600.0,6015.116,5.9,132.5,8.2,3249.0,35.518429970637484,-0.2534921217687868,11.371107916786332,-0.34375,11.76154361467885,11.05095638532115,11.166666666666666,11.114583333333332,11.010416666666666,10.958333333333332,11.270833333333332,11.322916666666666,11.427083333333332,0
0.33,0.18,0.49,11.1875,11.09375,11.125,511200.0,6015.116,5.9,132.5,8.2,3249.0,31.10906194684036,-0.2515948534214525,11.370062021155611,-0.15625,11.742055932673807,11.020444067326192,11.135416666666666,11.083333333333332,11.041666666666666,10.989583333333332,11.177083333333332,11.229166666666666,11.270833333333332,0
0.16,0.33,0.51,11.125,10.875,10.9375,459600.0,6015.116,5.9,132.5,8.2,3249.0,24.18145896500401,-0.2528384997714575,11.368415587846544,-0.53125,11.755528752987322,10.947596247012678,10.979166666666666,10.833333333333332,10.729166666666666,10.583333333333332,11.083333333333332,11.229166666666666,11.333333333333332,0
0.16,0.33,0.51,10.75,10.40625,10.71875,529600.0,6015.116,5.9,132.5,8.2,3249.0,18.60438811128745,-0.2588993750125093,11.365578629570871,-0.75,11.758271893810466,10.844853106189532,10.625,10.5,10.28125,10.15625,10.84375,10.96875,11.1875,0
0.16,0.33,0.51,10.71875,10.53125,10.6875,526000.0,6015.116,5.9,132.5,8.2,3249.0,17.923015595911735,-0.2675703663549427,11.3626504251064,-0.71875,11.7914673149342,10.7366576850658,10.645833333333334,10.572916666666668,10.458333333333334,10.385416666666668,10.760416666666668,10.833333333333334,10.947916666666668,0
0.16,0.33,0.51,10.71875,10.625,10.6875,360000.0,6015.116,5.9,132.5,8.2,3249.0,17.923015595911735,-0.2768129332202226,11.360660865486622,-0.6875,11.818930345052904,10.646694654947094,10.677083333333334,10.635416666666668,10.583333333333334,10.541666666666668,10.729166666666668,10.770833333333334,10.822916666666668,0
0.16,0.33,0.51,10.65625,10.4375,10.5,595200.0,6015.116,5.9,132.5,8.2,3249.0,13.866283272306404,-0.2882897822454141,11.356487964320626,-0.875,11.873382512679209,10.539117487320794,10.53125,10.40625,10.3125,10.1875,10.625,10.75,10.84375,1
0.13,0.31,0.56,10.6875,10.46875,10.5625,1078400.0,6015.116,5.9,132.5,8.2,3249.0,20.764133106674265,-0.29891117892679,11.349573819590692,-0.78125,11.899897859968286,10.446977140031716,10.572916666666666,10.458333333333332,10.354166666666666,10.239583333333332,10.677083333333332,10.791666666666666,10.895833333333332,0
0.13,0.31,0.56,10.59375,10.46875,10.5625,686400.0,6015.116,5.9,132.5,8.2,3249.0,20.764133106674265,-0.3077583244465754,11.345235346693991,-0.78125,11.868826039401611,10.374923960598387,10.541666666666666,10.489583333333332,10.416666666666666,10.364583333333332,10.614583333333332,10.666666666666666,10.739583333333332,1
0.13,0.31,0.56,11.03125,10.625,11.0,522400.0,6015.116,5.9,132.5,8.2,3249.0,54.62736492088976,-0.3073481212692921,11.343793083731583,-0.15625,11.79362791056395,10.384497089436053,10.885416666666666,10.739583333333332,10.479166666666666,10.333333333333332,11.145833333333332,11.291666666666666,11.552083333333332,0
0.13,0.31,0.56,11.0625,10.75,10.875,654000.0,6015.116,5.9,132.5,8.2,3249.0,47.88127455125339,-0.3024508882575116,11.341354040375112,-0.34375,11.728405519942118,10.380969480057882,10.895833333333334,10.729166666666668,10.583333333333334,10.416666666666668,11.041666666666668,11.208333333333334,11.354166666666668,1
0.13,0.31,0.56,11.09375,10.84375,10.90625,700800.0,6015.116,5.9,132.5,8.2,3249.0,49.67403367308675,-0.293810070668014,11.338941729561242,-0.21875,11.703955421974356,10.367919578025642,10.947916666666666,10.802083333333332,10.697916666666666,10.552083333333332,11.052083333333332,11.197916666666666,11.302083333333332,1
0.26,0.2,0.54,11.28125,10.8125,10.9375,520400.0,6015.116,5.9,132.5,8.2,3249.0,51.59519797961264,-0.2821075846455097,11.337295761031935,0.0,11.646462069567823,10.372287930432176,11.010416666666666,10.739583333333332,10.541666666666666,10.270833333333332,11.208333333333332,11.479166666666666,11.677083333333332,1
0.26,0.2,0.54,11.5625,11.125,11.46875,426400.0,6004.733,5.9,133.4,8.11,3253.7,72.32122554586138,-0.2599808040926242,11.337735907209176,0.75,11.646462069567823,10.372287930432176,11.385416666666666,11.208333333333332,10.947916666666666,10.770833333333332,11.645833333333332,11.822916666666666,12.083333333333332,1
0.26,0.2,0.54,11.78125,11.5625,11.59375,700000.0,6004.733,5.9,133.4,8.11,3253.7,75.20374765699495,-0.2298933492440551,11.33913545070317,0.90625,11.685265882070803,10.352234117929196,11.645833333333334,11.510416666666668,11.427083333333334,11.291666666666668,11.729166666666668,11.864583333333334,11.947916666666668,0
0.26,0.2,0.54,11.5625,11.28125,11.40625,625600.0,6004.733,5.9,133.4,8.11,3253.7,63.71872103002579,-0.1988610116170477,11.339461753853136,0.71875,11.690481309743204,10.350143690256797,11.416666666666666,11.270833333333332,11.135416666666666,10.989583333333332,11.552083333333332,11.697916666666666,11.833333333333332,0
0.26,0.2,0.54,11.46875,11.28125,11.375,283600.0,6004.733,5.9,133.4,8.11,3253.7,61.90075759639598,-0.1689085372145043,11.339539908342251,0.875,11.690481309743204,10.350143690256797,11.375,11.28125,11.1875,11.09375,11.46875,11.5625,11.65625,0
0.15,0.26,0.59,11.3125,10.9375,11.125,559200.0,6004.733,5.9,133.4,8.11,3253.7,48.996781723536685,-0.1448066856285343,11.338613616569846,0.5625,11.66428434487148,10.35446565512852,11.125,10.9375,10.75,10.5625,11.3125,11.5,11.6875,0
0.15,0.26,0.59,11.25,11.0,11.0,359200.0,6004.733,5.9,133.4,8.11,3253.7,43.73671071170098,-0.1272996082315244,11.337677110699095,0.4375,11.627909672746116,10.356465327253884,11.083333333333334,10.916666666666668,10.833333333333334,10.666666666666668,11.166666666666668,11.333333333333334,11.416666666666668,0
0.15,0.26,0.59,11.0,10.5625,10.59375,960400.0,6004.733,5.9,133.4,8.11,3253.7,31.18297736830931,-0.1210350973846317,11.332216356560236,-0.40625,11.618712805908666,10.309412194091337,10.71875,10.4375,10.28125,10.0,10.875,11.15625,11.3125,0
0.15,0.26,0.59,10.59375,10.03125,10.09375,925200.0,6004.733,5.9,133.4,8.11,3253.7,22.153041299074303,-0.1298469499642374,11.323520153762086,-0.78125,11.65684559383357,10.158779406166431,10.239583333333334,9.885416666666668,9.677083333333334,9.322916666666668,10.447916666666668,10.802083333333334,11.010416666666668,0
0.15,0.26,0.59,10.1875,9.75,9.84375,1204800.0,6004.733,5.9,133.4,8.11,3253.7,18.981843098348502,-0.1513390997130556,11.310112091890607,-1.0625,11.722501356965331,9.964998643034669,9.927083333333334,9.666666666666668,9.489583333333334,9.229166666666668,10.104166666666668,10.364583333333334,10.541666666666668,0
0.21,0.27,0.52,9.9375,9.5625,9.6875,1556800.0,6004.733,5.9,133.4,8.11,3253.7,17.205654228714863,-0.1818003051373096,11.291334104201791,-1.25,11.798777317621132,9.763722682378868,9.729166666666666,9.520833333333332,9.354166666666666,9.145833333333332,9.895833333333332,10.104166666666666,10.270833333333332,0
0.21,0.27,0.52,9.75,9.53125,9.59375,934000.0,6004.733,5.9,133.4,8.11,3253.7,16.158861537481243,-0.2173676810022467,11.279629013063866,-1.875,11.873081924456242,9.576918075543755,9.625,9.5,9.40625,9.28125,9.71875,9.84375,9.9375,0
0.21,0.27,0.52,9.625,8.625,8.65625,2130400.0,6004.733,5.9,133.4,8.11,3253.7,9.49404063297294,-0.2687328450046016,11.239008852516209,-2.9375,12.09834759427158,9.14852740572842,8.96875,8.3125,7.96875,7.3125,9.3125,9.96875,10.3125,1
0.21,0.27,0.52,9.09375,8.71875,8.90625,1859600.0,6004.733,5.9,133.4,8.11,3253.7,19.68658178098056,-0.3227060092821266,11.207900404883269,-2.5,12.196266459658002,8.872483540342,8.90625,8.71875,8.53125,8.34375,9.09375,9.28125,9.46875,1
0.21,0.27,0.52,9.34375,8.96875,9.1875,784800.0,6004.733,5.9,133.4,8.11,3253.7,29.92985470598046,-0.3702617633898668,11.196593387120238,-2.1875,12.236633249598375,8.700866750401623,9.166666666666666,8.989583333333332,8.791666666666666,8.614583333333332,9.364583333333332,9.541666666666666,9.739583333333332,1
0.13,0.2,0.67,9.78125,9.25,9.65625,820000.0,6004.733,5.9,133.4,8.11,3253.7,43.73103469176847,-0.402979723982943,11.18763868959337,-1.46875,12.227293361867774,8.619581638132226,9.5625,9.34375,9.03125,8.8125,9.875,10.09375,10.40625,0
0.13,0.2,0.67,9.65625,9.3125,9.3125,684400.0,6004.733,5.9,133.4,8.11,3253.7,37.48394394989254,-0.4292483716776568,11.178584266753589,-1.6875,12.229949319363657,8.491925680636344,9.427083333333334,9.197916666666668,9.083333333333334,8.854166666666668,9.541666666666668,9.770833333333334,9.885416666666668,0
0.13,0.2,0.67,9.4375,9.09375,9.15625,593200.0,6004.733,5.9,133.4,8.11,3253.7,34.87129330042512,-0.4516122026983978,11.170155624253496,-1.4375,12.186293659010277,8.351206340989725,9.229166666666666,9.020833333333332,8.885416666666666,8.677083333333332,9.364583333333332,9.572916666666666,9.708333333333332,1
0.13,0.2,0.67,9.4375,9.15625,9.40625,671600.0,6004.733,5.9,133.4,8.11,3253.7,42.29646303488371,-0.4653383017498672,11.161871528010876,-0.6875,12.127539513979626,8.263085486020374,9.333333333333334,9.229166666666668,9.052083333333334,8.947916666666668,9.510416666666668,9.614583333333334,9.791666666666668,0
0.13,0.2,0.67,9.5,9.3125,9.375,485200.0,6004.733,5.9,133.4,8.11,3253.7,41.61221635438767,-0.4723688683307193,11.155829229587669,-0.46875,12.053712259933876,8.183787740066125,9.395833333333334,9.291666666666668,9.208333333333334,9.104166666666668,9.479166666666668,9.583333333333334,9.666666666666668,1
0.23,0.19,0.58,9.5625,9.28125,9.5625,534000.0,6004.733,5.9,133.4,8.11,3253.7,47.492875891677286,-0.4707661737626027,11.149921487035206,-0.125,11.960023766730057,8.139976233269945,9.46875,9.375,9.1875,9.09375,9.65625,9.75,9.9375,0
0.23,0.19,0.58,9.5625,9.375,9.40625,403600.0,6004.733,5.9,133.4,8.11,3253.7,43.29958983919154,-0.4652562404146287,11.145048724453762,-0.1875,11.75433168580263,8.139418314197371,9.447916666666666,9.333333333333332,9.260416666666666,9.145833333333332,9.520833333333332,9.635416666666666,9.708333333333332,1
0.23,0.19,0.58,9.5,9.375,9.46875,676000.0,6004.733,5.9,133.4,8.11,3253.7,45.51969452262774,-0.4555286012253511,11.137239111677156,0.8125,11.482728813469327,8.19852118653067,9.447916666666666,9.395833333333332,9.322916666666666,9.270833333333332,9.520833333333332,9.572916666666666,9.645833333333332,0
0.23,0.19,0.58,9.59375,9.46875,9.46875,258400.0,6004.733,5.9,133.4,8.11,3253.7,45.51969452262774,-0.4426290828195939,11.134273088385427,0.5625,11.216864316498782,8.270635683501219,9.510416666666666,9.427083333333332,9.385416666666666,9.302083333333332,9.552083333333332,9.635416666666666,9.677083333333332,1
0.23,0.19,0.58,9.6875,9.5,9.6875,635600.0,6004.733,6.2,133.7,7.81,3265.3,53.9260304553703,-0.4239188363363009,11.127974429156186,0.5,10.91657466069121,8.40217533930879,9.625,9.5625,9.4375,9.375,9.75,9.8125,9.9375,1
0.2,0.36,0.44,9.75,9.65625,9.75,1046800.0,6004.733,6.2,133.7,7.81,3265.3,56.15628491486663,-0.4005840123292627,11.11816450083378,0.09375,10.64426452564432,8.53698547435568,9.71875,9.6875,9.625,9.59375,9.78125,9.8125,9.875,1
0.2,0.36,0.44,9.875,9.65625,9.875,302000.0,6004.733,6.2,133.7,7.81,3265.3,60.56177335894996,-0.3726665287684984,11.115616465503669,0.5625,10.368450875319182,8.70029912468082,9.802083333333334,9.729166666666668,9.583333333333334,9.510416666666668,9.947916666666668,10.020833333333334,10.166666666666668,0
0.2,0.36,0.44,9.8125,9.75,9.75,310400.0,6004.733,6.2,133.7,7.81,3265.3,54.26972246389004,-0.3444851231925876,11.112745642503809,0.59375,10.171678832096829,8.812696167903171,9.770833333333334,9.729166666666668,9.708333333333334,9.666666666666668,9.791666666666668,9.833333333333334,9.854166666666668,0
0.2,0.36,0.44,9.8125,9.65625,9.6875,348800.0,6004.733,6.2,133.7,7.81,3265.3,51.20078409966822,-0.3178276119776756,11.109386739674491,0.28125,10.097828220465006,8.845921779534995,9.71875,9.625,9.5625,9.46875,9.78125,9.875,9.9375,1
0.2,0.36,0.44,9.75,9.59375,9.71875,261600.0,6004.733,6.2,133.7,7.81,3265.3,52.742551114656486,-0.2922997100966432,11.106933072087628,0.34375,10.07829951863894,8.852950481361058,9.6875,9.625,9.53125,9.46875,9.78125,9.84375,9.9375,1
0.2,0.32,0.48,10.125,9.75,10.0,394800.0,6004.733,6.2,133.7,7.81,3265.3,64.41705049916908,-0.2636646506087367,11.103993339109424,0.4375,10.132476070375583,8.830023929624414,9.958333333333334,9.791666666666668,9.583333333333334,9.416666666666668,10.166666666666668,10.333333333333334,10.541666666666668,0
0.2,0.32,0.48,10.0625,9.875,9.9375,277200.0,6004.733,6.2,133.7,7.81,3265.3,60.57970801316062,-0.2349793879885746,11.10182225922544,0.53125,10.17962110371758,8.81725389628242,9.958333333333334,9.854166666666668,9.770833333333334,9.666666666666668,10.041666666666668,10.145833333333334,10.229166666666668,0
0.2,0.32,0.48,9.96875,9.6875,9.78125,351200.0,6004.733,6.2,133.7,7.81,3265.3,51.69634375747353,-0.2097236998206174,11.098715596514635,0.3125,10.118784283292582,8.990590716707418,9.8125,9.65625,9.53125,9.375,9.9375,10.09375,10.21875,1
0.2,0.32,0.48,10.09375,9.84375,10.0625,481200.0,6004.733,6.2,133.7,7.81,3265.3,62.97317696445972,-0.182976365162401,11.095386276410778,0.59375,10.13202027466641,9.092979725333592,10.0,9.90625,9.75,9.65625,10.15625,10.25,10.40625,0
0.2,0.32,0.48,10.125,9.8125,9.8125,606400.0,6004.733,6.2,133.7,7.81,3265.3,50.80763375956949,-0.1602677987028288,11.090212921313944,0.125,10.12973787076048,9.157762129239522,9.916666666666666,9.708333333333332,9.604166666666666,9.395833333333332,10.020833333333332,10.229166666666666,10.333333333333332,1
0.12,0.33,0.55,10.0625,9.875,10.03125,634000.0,6004.733,6.2,133.7,7.81,3265.3,58.83634426727495,-0.1374257632620476,11.08576693874794,0.28125,10.178526060133429,9.14647393986657,9.989583333333334,9.916666666666668,9.802083333333334,9.729166666666668,10.104166666666668,10.177083333333334,10.291666666666668,1
0.12,0.33,0.55,10.59375,10.15625,10.59375,672800.0,6004.733,6.2,133.7,7.81,3265.3,72.26637686838436,-0.1064099092048415,11.083584544862395,0.71875,10.363576956478928,9.089548043521072,10.447916666666666,10.302083333333332,10.010416666666666,9.864583333333332,10.739583333333332,10.885416666666666,11.177083333333332,0
0.12,0.33,0.55,10.8125,10.59375,10.59375,880400.0,6004.733,6.2,133.7,7.81,3265.3,72.26637686838436,-0.0716542366053994,11.08075782304899,0.84375,10.486826578229968,9.110048421770031,10.666666666666666,10.520833333333332,10.447916666666666,10.302083333333332,10.739583333333332,10.885416666666666,10.958333333333332,0
0.16,0.37,0.47,10.6875,10.1875,10.59375,699600.0,6004.733,6.2,133.7,7.81,3265.3,72.26637686838436,-0.0362131534853116,11.078534756912363,0.90625,10.606021710733405,9.109603289266596,10.489583333333334,10.291666666666668,9.989583333333334,9.791666666666668,10.791666666666668,10.989583333333334,11.291666666666668,0
0.16,0.37,0.47,10.59375,10.40625,10.40625,114800.0,6004.733,6.2,133.7,7.81,3265.3,61.92146453650489,-0.0051092643597521,11.078031561570098,0.6875,10.65962166996226,9.15912833003774,10.46875,10.34375,10.28125,10.15625,10.53125,10.65625,10.71875,0
0.16,0.37,0.47,10.25,10.125,10.1875,474000.0,6004.733,6.2,133.7,7.81,3265.3,51.916981278384064,0.0181672548876912,11.075287909553696,0.1875,10.682050769077808,9.199199230922192,10.1875,10.125,10.0625,10.0,10.25,10.3125,10.375,0
0.16,0.37,0.47,10.25,10.125,10.15625,399200.0,6004.733,6.2,133.7,7.81,3265.3,50.57019725240486,0.0347775543879875,11.072909427317802,0.21875,10.680593626383144,9.275656373616858,10.177083333333334,10.104166666666668,10.052083333333334,9.979166666666668,10.229166666666668,10.302083333333334,10.354166666666668,1
0.16,0.37,0.47,10.25,10.0625,10.25,539600.0,6004.733,6.2,133.7,7.81,3265.3,54.64307426796011,0.0477553185643855,11.070040739276385,0.46875,10.686496784085575,9.347878215914424,10.1875,10.125,10.0,9.9375,10.3125,10.375,10.5,1
0.16,0.37,0.47,10.40625,10.25,10.3125,239600.0,6004.733,6.2,133.7,7.81,3265.3,57.34655442432359,0.0586642710970377,11.068869945455296,0.25,10.68827729138178,9.43047270861822,10.322916666666666,10.239583333333332,10.166666666666666,10.083333333333332,10.395833333333332,10.479166666666666,10.552083333333332,1
0.22,0.33,0.45,10.59375,10.1875,10.5625,801600.0,6004.733,6.2,133.7,7.81,3265.3,66.54888901459645,0.0715595635011928,11.066265151087336,0.75,10.744714053178033,9.461535946821968,10.447916666666666,10.302083333333332,10.041666666666666,9.895833333333332,10.708333333333332,10.854166666666666,11.114583333333332,0
0.22,0.33,0.45,10.59375,10.1875,10.5625,801600.0,6004.733,6.3,134.2,7.31,3285.1,66.54888901459645,0.0848607639984911,11.063687017978449,0.53125,10.794028280511702,9.4934717194883,10.447916666666666,10.302083333333332,10.041666666666666,9.895833333333332,10.708333333333332,10.854166666666666,11.114583333333332,1
0.22,0.33,0.45,10.71875,10.5625,10.625,551200.0,6004.733,6.3,134.2,7.31,3285.1,68.79004875690337,0.098522845065996,11.062148658380794,0.03125,10.852438066828237,9.510061933171764,10.635416666666666,10.552083333333332,10.479166666666666,10.395833333333332,10.708333333333332,10.791666666666666,10.864583333333332,1
0.22,0.33,0.45,10.65625,10.40625,10.65625,517200.0,6004.733,6.3,134.2,7.31,3285.1,69.95150512803315,0.1119689522239584,11.060817458294336,0.0625,10.897528454799492,9.555596545200508,10.572916666666666,10.489583333333332,10.322916666666666,10.239583333333332,10.739583333333332,10.822916666666666,10.989583333333332,0
0.22,0.33,0.45,10.75,10.5,10.625,549200.0,6004.733,6.3,134.2,7.31,3285.1,67.07148426139852,0.1238210485739859,11.059304968227408,0.03125,10.916235083654938,9.630639916345062,10.625,10.5,10.375,10.25,10.75,10.875,11.0,1
0.22,0.33,0.45,11.125,10.75,11.0625,801600.0,6004.733,6.3,134.2,7.31,3285.1,80.22407523609814,0.1407505871193257,11.059321070824993,0.65625,11.019215596286465,9.662034403713536,10.979166666666666,10.833333333333332,10.604166666666666,10.458333333333332,11.208333333333332,11.354166666666666,11.583333333333332,0
0.26,0.33,0.41,11.21875,10.90625,10.9375,518800.0,6004.733,6.3,134.2,7.31,3285.1,70.88937893279105,0.1576599926277395,11.05892500156671,0.75,11.095884931041248,9.679115068958753,11.020833333333334,10.822916666666668,10.708333333333334,10.510416666666668,11.135416666666668,11.333333333333334,11.447916666666668,1
0.26,0.33,0.41,11.25,10.9375,11.25,154000.0,6004.733,6.3,134.2,7.31,3285.1,78.20486203432378,0.1782967761316493,11.059109229045102,1.09375,11.226207304803312,9.680042695196688,11.145833333333334,11.041666666666668,10.833333333333334,10.729166666666668,11.354166666666668,11.458333333333334,11.666666666666668,0
0.26,0.33,0.41,11.1875,10.9375,11.0625,724400.0,6004.733,6.3,134.2,7.31,3285.1,66.61535316549183,0.1967901662498954,11.059124537857654,0.8125,11.267865647358144,9.766509352641856,11.0625,10.9375,10.8125,10.6875,11.1875,11.3125,11.4375,1
0.26,0.33,0.41,11.125,10.9375,11.125,732800.0,6004.733,6.3,134.2,7.31,3285.1,68.41559413780104,0.2135192912512705,11.059424036426083,0.8125,11.33574447083326,9.80488052916674,11.0625,11.0,10.875,10.8125,11.1875,11.25,11.375,0
0.26,0.33,0.41,11.15625,11.0625,11.09375,427200.0,6004.733,6.3,134.2,7.31,3285.1,66.35139392935514,0.2272804115268969,11.0595147746033,0.53125,11.34528041787069,9.92346958212931,11.104166666666666,11.052083333333332,11.010416666666666,10.958333333333332,11.145833333333332,11.197916666666666,11.239583333333332,0
0.31,0.31,0.38,11.0625,10.875,10.96875,401600.0,6004.733,6.3,134.2,7.31,3285.1,58.241139541794254,0.2359475432499369,11.05928978149497,0.40625,11.346901639570705,10.015598360429298,10.96875,10.875,10.78125,10.6875,11.0625,11.15625,11.25,0
0.31,0.31,0.38,10.9375,10.84375,10.90625,285600.0,6004.733,6.3,134.2,7.31,3285.1,54.404614197736805,0.239432593092997,11.059020469439714,0.28125,11.368522375762334,10.025227624237669,10.895833333333334,10.854166666666668,10.802083333333334,10.760416666666668,10.947916666666668,10.989583333333334,11.041666666666668,1
0.31,0.31,0.38,11.15625,10.84375,11.09375,633200.0,6004.733,6.3,134.2,7.31,3285.1,62.870882001419645,0.24193266001531,11.059155440904249,0.4375,11.41426193737869,10.029488062621311,11.03125,10.90625,10.71875,10.59375,11.21875,11.34375,11.53125,0
0.31,0.31,0.38,11.15625,10.90625,11.0,1051200.0,6004.733,6.3,134.2,7.31,3285.1,56.78754201168366,0.2416371611201099,11.058776222710089,0.375,11.442538387149854,10.041836612850146,11.020833333333334,10.885416666666668,10.770833333333334,10.635416666666668,11.135416666666668,11.270833333333334,11.385416666666668,1
0.31,0.31,0.38,11.28125,10.9375,11.28125,870400.0,6004.733,6.3,134.2,7.31,3285.1,67.62956330809729,0.2435413857887918,11.059950870607532,0.21875,11.506943684275258,10.06493131572474,11.166666666666666,11.052083333333332,10.822916666666666,10.708333333333332,11.395833333333332,11.510416666666666,11.739583333333332,1
0.16,0.34,0.5,11.6875,11.5,11.65625,738400.0,6004.733,6.3,134.2,7.31,3285.1,76.64471592267353,0.2521523578692096,11.062609910815224,0.71875,11.621745567099072,10.097004432900928,11.614583333333334,11.541666666666668,11.427083333333334,11.354166666666668,11.729166666666668,11.802083333333334,11.916666666666668,0
0.16,0.34,0.5,11.59375,11.5,11.5625,97200.0,6004.733,6.3,134.2,7.31,3285.1,70.94523053472612,0.2624451551861143,11.06290317226561,0.3125,11.678281302352833,10.181093697647167,11.552083333333334,11.510416666666668,11.458333333333334,11.416666666666668,11.604166666666668,11.645833333333334,11.697916666666668,1
0.16,0.34,0.5,11.6875,11.46875,11.65625,443600.0,6004.733,6.3,134.2,7.31,3285.1,73.24120904667197,0.2741500834353474,11.064487529615432,0.59375,11.743944855058784,10.256055144941216,11.604166666666666,11.520833333333332,11.385416666666666,11.302083333333332,11.739583333333332,11.822916666666666,11.958333333333332,0
0.16,0.34,0.5,11.875,11.625,11.65625,246400.0,6004.733,6.3,134.2,7.31,3285.1,73.24120904667197,0.2855016728201305,11.065363919675915,0.53125,11.792174738998416,10.342200261001585,11.71875,11.5625,11.46875,11.3125,11.8125,11.96875,12.0625,1
0.3,0.3,0.4,11.75,11.59375,11.75,343600.0,6004.733,6.3,134.2,7.31,3285.1,75.78844343933146,0.2968817376091439,11.06677491728627,0.65625,11.871743012836015,10.381381987163984,11.697916666666666,11.645833333333332,11.541666666666666,11.489583333333332,11.802083333333332,11.854166666666666,11.958333333333332,0
0.3,0.3,0.4,11.84375,11.625,11.75,163600.0,6004.733,6.3,134.2,7.31,3285.1,75.78844343933146,0.3070064348959508,11.067444700844662,0.78125,11.931118012836018,10.44075698716398,11.739583333333334,11.635416666666668,11.520833333333334,11.416666666666668,11.854166666666668,11.958333333333334,12.072916666666668,0
0.3,0.3,0.4,11.84375,11.625,11.75,163600.0,6035.178,6.4,134.7,6.91,3289.3,75.78844343933146,0.3151138090246967,11.068113172476217,0.84375,11.978877231073026,10.505497768926974,11.739583333333334,11.635416666666668,11.520833333333334,11.416666666666668,11.854166666666668,11.958333333333334,12.072916666666668,0
0.3,0.3,0.4,11.78125,11.34375,11.34375,1206400.0,6035.178,6.4,134.7,6.91,3289.3,46.3913144087381,0.3143320725381663,11.070089528757848,0.25,11.960396926616813,10.592728073383189,11.489583333333334,11.197916666666668,11.052083333333334,10.760416666666668,11.635416666666668,11.927083333333334,12.072916666666668,0
0.3,0.3,0.4,11.3125,11.0625,11.15625,1622400.0,6035.178,6.4,134.7,6.91,3289.3,38.44906502938596,0.3043119142794441,11.07091240590173,0.15625,11.918210841249246,10.688039158750753,11.177083333333334,11.041666666666668,10.927083333333334,10.791666666666668,11.291666666666668,11.427083333333334,11.541666666666668,0
0.31,0.39,0.3,11.15625,10.96875,11.0625,460000.0,6035.178,6.4,134.7,6.91,3289.3,34.99282599990926,0.2868372505809917,11.070889687769322,-0.21875,11.918210841249246,10.688039158750753,11.0625,10.96875,10.875,10.78125,11.15625,11.25,11.34375,0
0.31,0.39,0.3,10.96875,10.78125,10.78125,392000.0,6035.178,6.4,134.7,6.91,3289.3,26.68839902617576,0.2604653584348078,11.070224659047511,-0.875,11.93348777445137,10.65713722554863,10.84375,10.71875,10.65625,10.53125,10.90625,11.03125,11.09375,0
0.31,0.39,0.3,10.8125,10.5625,10.75,383200.0,6035.178,6.4,134.7,6.91,3289.3,25.90037034485493,0.2288070852921591,11.06950752085783,-0.8125,11.953545369968426,10.587079630031573,10.708333333333334,10.604166666666668,10.458333333333334,10.354166666666668,10.854166666666668,10.958333333333334,11.104166666666668,0
0.31,0.39,0.3,10.875,10.375,10.5625,973200.0,6035.178,6.4,134.7,6.91,3289.3,21.504473661367243,0.1919820393243503,11.066640201878151,-1.09375,11.99401614938692,10.496608850613082,10.604166666666666,10.333333333333332,10.104166666666666,9.833333333333332,10.833333333333332,11.104166666666666,11.333333333333332,1
0.31,0.39,0.3,10.875,10.5625,10.8125,283600.0,6035.178,6.4,134.7,6.91,3289.3,37.756934246752174,0.1574000280939007,11.06622205971424,-0.84375,12.001645398275906,10.457729601724097,10.75,10.625,10.4375,10.3125,10.9375,11.0625,11.25,1
0.22,0.3,0.48,11.03125,10.8125,10.96875,297600.0,6035.178,6.4,134.7,6.91,3289.3,45.84331541952065,0.128170884744887,11.066054060111709,-0.78125,12.00202506859695,10.444849931403049,10.9375,10.84375,10.71875,10.625,11.0625,11.15625,11.28125,0
0.22,0.3,0.48,10.90625,10.53125,10.53125,368400.0,6035.178,6.4,134.7,6.91,3289.3,32.29018307812429,0.0965568709222036,11.064915426830396,-1.21875,12.033064737155597,10.370060262844405,10.65625,10.40625,10.28125,10.03125,10.78125,11.03125,11.15625,1
0.22,0.3,0.48,10.625,10.4375,10.625,314800.0,6035.178,6.4,134.7,6.91,3289.3,36.90247820413896,0.0663809791889572,11.064116542177487,-1.125,12.049003047005652,10.325996952994348,10.5625,10.5,10.375,10.3125,10.6875,10.75,10.875,1
0.22,0.3,0.48,10.78125,10.5,10.6875,300000.0,6035.178,6.4,134.7,6.91,3289.3,40.04410083898734,0.0395341999463565,11.063465888542597,-0.65625,12.056699442983652,10.27767555701635,10.65625,10.53125,10.375,10.25,10.8125,10.9375,11.09375,1
0.22,0.3,0.48,11.21875,11.0,11.03125,791600.0,6035.178,6.4,134.7,6.91,3289.3,54.4399302456256,0.0215756204930684,11.063319694450811,-0.125,12.0571344740225,10.2803655259775,11.083333333333334,10.947916666666668,10.864583333333334,10.729166666666668,11.166666666666668,11.302083333333334,11.385416666666668,1
0.22,0.27,0.51,11.375,11.03125,11.375,512400.0,6035.178,6.4,134.7,6.91,3289.3,64.32387580951958,0.0155645661656916,11.06423254268018,0.3125,12.065303844054936,10.281571155945064,11.260416666666666,11.145833333333332,10.916666666666666,10.802083333333332,11.489583333333332,11.604166666666666,11.833333333333332,0
0.22,0.27,0.51,11.40625,11.25,11.28125,369600.0,6035.178,6.4,134.7,6.91,3289.3,60.21319183322252,0.0158258972354421,11.064690041751748,0.5,12.01916249849697,10.29021250150303,11.3125,11.21875,11.15625,11.0625,11.375,11.46875,11.53125,1
0.22,0.27,0.51,11.375,11.1875,11.3125,278000.0,6035.178,6.4,134.7,6.91,3289.3,61.16766139512131,0.0204674436268339,11.06508236047836,0.5625,11.98888070975628,10.295494290243722,11.291666666666666,11.208333333333332,11.104166666666666,11.020833333333332,11.395833333333332,11.479166666666666,11.583333333333332,1
0.22,0.27,0.51,11.46875,11.28125,11.375,369200.0,6035.178,6.4,134.7,6.91,3289.3,63.20467321948726,0.0285616081443169,11.065732596954469,0.8125,11.9477797331523,10.3084702668477,11.375,11.28125,11.1875,11.09375,11.46875,11.5625,11.65625,1
0.22,0.27,0.51,11.8125,11.4375,11.78125,425200.0,6035.178,6.4,134.7,6.91,3289.3,73.59359621714266,0.0448118811350276,11.067457356922896,0.96875,11.972679797916932,10.296070202083069,11.677083333333334,11.541666666666668,11.302083333333334,11.166666666666668,11.916666666666668,12.052083333333334,12.291666666666668,0
0.25,0.25,0.5,11.875,11.375,11.46875,674800.0,6035.178,6.4,134.7,6.91,3289.3,58.84659391352484,0.0602344884168299,11.068986658888164,0.5,11.923849858300304,10.316775141699695,11.572916666666666,11.270833333333332,11.072916666666666,10.770833333333332,11.770833333333332,12.072916666666666,12.270833333333332,1
0.25,0.25,0.5,11.625,11.3125,11.53125,700800.0,6035.178,6.4,134.7,6.91,3289.3,60.665519946126985,0.0751897167223404,11.070808980705406,1.0,11.882191320861232,10.336558679138768,11.489583333333334,11.354166666666668,11.177083333333334,11.041666666666668,11.666666666666668,11.802083333333334,11.979166666666668,1
0.25,0.25,0.5,11.6875,11.53125,11.6875,411600.0,6035.178,6.4,134.7,6.91,3289.3,65.11342495305723,0.0913895280791797,11.072233538704332,1.0625,11.868593599145369,10.343906400854632,11.635416666666666,11.583333333333332,11.479166666666666,11.427083333333332,11.739583333333332,11.791666666666666,11.895833333333332,1
0.25,0.25,0.5,11.875,11.65625,11.84375,313200.0,6035.178,6.4,134.7,6.91,3289.3,69.13991897373657,0.1098047813729514,11.073587297781224,1.15625,11.956578881814949,10.30592111818505,11.791666666666666,11.708333333333332,11.572916666666666,11.489583333333332,11.927083333333332,12.010416666666666,12.145833333333332,1
0.25,0.25,0.5,12.375,11.78125,12.34375,912800.0,6035.178,6.4,134.7,6.91,3289.3,78.36132690211699,0.136370213414362,11.080049702465224,1.3125,12.178399778559324,10.202850221440675,12.166666666666666,11.958333333333332,11.572916666666666,11.364583333333332,12.552083333333332,12.760416666666666,13.145833333333332,1
0.29,0.29,0.42,12.5625,12.1875,12.4375,1169200.0,6035.178,6.6,134.8,6.25,3296.3,79.67526311805621,0.1678363269491836,11.088838931690006,1.0625,12.39058956036376,10.12816043963624,12.395833333333334,12.229166666666668,12.020833333333334,11.854166666666668,12.604166666666668,12.770833333333334,12.979166666666668,1
0.29,0.29,0.42,12.5625,12.1875,12.5625,750800.0,6035.178,6.6,134.8,6.25,3296.3,81.41174012169303,0.2023363560907011,11.094940731581955,1.28125,12.59568364414276,10.10119135585724,12.4375,12.3125,12.0625,11.9375,12.6875,12.8125,13.0625,1
0.29,0.29,0.42,12.875,12.25,12.75,1313600.0,6035.178,6.6,134.8,6.25,3296.3,83.80631757063966,0.2394597237290753,11.106844320996576,1.4375,12.809200365328836,10.087674634671163,12.625,12.375,12.0,11.75,13.0,13.25,13.625,1
0.29,0.29,0.42,13.15625,12.625,13.15625,2293600.0,6035.178,6.6,134.8,6.25,3296.3,87.75112882336613,0.2822169851730879,11.13226147809931,1.78125,13.071325047407916,10.084924952592084,12.979166666666666,12.802083333333332,12.447916666666666,12.270833333333332,13.333333333333332,13.510416666666666,13.864583333333332,0
0.29,0.29,0.42,13.3125,12.65625,12.875,1114400.0,6035.178,6.6,134.8,6.25,3296.3,73.45691266041084,0.3211336467268789,11.142700156732737,1.09375,13.235451648164728,10.127048351835272,12.947916666666666,12.583333333333332,12.291666666666666,11.927083333333332,13.239583333333332,13.604166666666666,13.895833333333332,1
0.36,0.28,0.36,13.03125,12.65625,12.9375,514800.0,6035.178,6.6,134.8,6.25,3296.3,74.52111320224802,0.3558682414264813,11.14765268218949,1.46875,13.392174112551547,10.167200887448452,12.875,12.71875,12.5,12.34375,13.09375,13.25,13.46875,1
0.36,0.28,0.36,13.375,12.875,13.375,1012800.0,6035.178,6.6,134.8,6.25,3296.3,80.75366641616027,0.3923297140647298,11.15967899548345,1.84375,13.571922347805536,10.271827652194464,13.208333333333334,13.041666666666668,12.708333333333334,12.541666666666668,13.541666666666668,13.708333333333334,14.041666666666668,0
0.36,0.28,0.36,13.34375,13.0625,13.34375,795600.0,6035.178,6.6,134.8,6.25,3296.3,79.15779064497319,0.4265694154172419,11.168903525675736,1.65625,13.705961756103594,10.409663243896407,13.25,13.15625,12.96875,12.875,13.4375,13.53125,13.71875,0
0.36,0.28,0.36,13.34375,13.125,13.28125,606400.0,6035.178,6.6,134.8,6.25,3296.3,75.70523530995584,0.4556522628663865,11.17568167699234,1.4375,13.789179833635233,10.585820166364767,13.25,13.15625,13.03125,12.9375,13.375,13.46875,13.59375,0
0.36,0.28,0.36,13.375,12.875,13.0,550400.0,6035.178,6.6,134.8,6.25,3296.3,61.726206719498464,0.474452620110123,11.180979566736946,0.65625,13.829343864907488,10.742531135092513,13.083333333333334,12.791666666666668,12.583333333333334,12.291666666666668,13.291666666666668,13.583333333333334,13.791666666666668,1
0.46,0.3,0.24,13.25,12.9375,13.1875,772800.0,6035.178,6.6,134.8,6.25,3296.3,66.4864405212663,0.4877326454035383,11.189127873064916,0.75,13.90755737670603,10.84556762329397,13.125,13.0,12.8125,12.6875,13.3125,13.4375,13.625,1
0.46,0.3,0.24,13.53125,13.1875,13.53125,587600.0,6035.178,6.6,134.8,6.25,3296.3,73.46715580656185,0.5012291618342973,11.19633743797462,0.96875,14.011816859316008,10.96630814068399,13.416666666666666,13.302083333333332,13.072916666666666,12.958333333333332,13.645833333333332,13.760416666666666,13.989583333333332,1
0.46,0.3,0.24,13.625,13.5,13.625,645200.0,6035.178,6.6,134.8,6.25,3296.3,75.0993313076099,0.5145071848702482,11.20451857834712,0.875,14.10225611608026,11.10711888391974,13.583333333333334,13.541666666666668,13.458333333333334,13.416666666666668,13.666666666666668,13.708333333333334,13.791666666666668,0
0.46,0.3,0.24,13.625,13.1875,13.28125,384800.0,6035.178,6.6,134.8,6.25,3296.3,59.59049029313024,0.5202952081380638,11.208682437854184,0.125,14.108006943389023,11.291993056610972,13.364583333333334,13.104166666666668,12.927083333333334,12.666666666666668,13.541666666666668,13.802083333333334,13.979166666666668,0
0.57,0.2,0.23,13.4375,13.125,13.1875,604400.0,6035.178,6.6,134.8,6.25,3296.3,55.954248001391925,0.5184036423926942,11.21489463651285,0.3125,14.124563087817998,11.416061912182,13.25,13.0625,12.9375,12.75,13.375,13.5625,13.6875,0
0.57,0.2,0.23,13.28125,13.0625,13.0625,439200.0,6035.178,6.6,134.8,6.25,3296.3,51.1521967824852,0.5086219692766689,11.219099937190096,0.125,14.061852105793411,11.638147894206588,13.135416666666666,12.989583333333332,12.916666666666666,12.770833333333332,13.208333333333332,13.354166666666666,13.427083333333332,0
0.57,0.2,0.23,13.09375,12.8125,13.03125,343200.0,6035.178,6.6,134.8,6.25,3296.3,49.9164615429591,0.4927498733354849,11.222317264198184,-0.34375,13.966964869596776,11.883035130403226,12.979166666666666,12.864583333333332,12.697916666666666,12.583333333333332,13.145833333333332,13.260416666666666,13.427083333333332,1
0.57,0.2,0.23,13.28125,13.03125,13.15625,740800.0,6035.178,6.6,134.8,6.25,3296.3,54.94052553319092,0.47476368521514,11.229700299720893,-0.1875,13.865524605971626,12.131350394028374,13.15625,13.03125,12.90625,12.78125,13.28125,13.40625,13.53125,1
0.57,0.2,0.23,13.28125,13.0625,13.25,449200.0,6035.178,6.6,134.8,6.25,3296.3,58.53969137398443,0.4568089347980053,11.234366291612597,-0.03125,13.749669463512111,12.387830536487888,13.197916666666666,13.114583333333332,12.979166666666666,12.895833333333332,13.333333333333332,13.416666666666666,13.552083333333332,0
0.5,0.18,0.32,13.25,13.0625,13.21875,369200.0,6035.178,6.8,134.8,6.12,3327.3,56.79486795248013,0.4382753711459507,11.238125982728608,0.21875,13.703829901689176,12.521170098310824,13.177083333333334,13.104166666666668,12.989583333333334,12.916666666666668,13.291666666666668,13.364583333333334,13.479166666666668,0
0.5,0.18,0.32,13.21875,12.625,12.625,425200.0,6035.178,6.8,134.8,6.12,3327.3,34.34961715253748,0.4098787259058581,11.241145576238102,-0.5625,13.672704219402457,12.571045780597542,12.822916666666666,12.427083333333332,12.229166666666666,11.833333333333332,13.020833333333332,13.416666666666666,13.614583333333332,1
0.5,0.18,0.32,13.375,12.65625,13.28125,512800.0,6035.178,6.8,134.8,6.12,3327.3,56.34942669245699,0.3863245802165485,11.24648850940432,-0.25,13.64509948112492,12.67052551887508,13.104166666666666,12.833333333333332,12.385416666666666,12.114583333333332,13.552083333333332,13.822916666666666,14.270833333333332,0
0.5,0.18,0.32,13.3125,12.9375,13.0625,834400.0,6035.178,6.8,134.8,6.12,3327.3,49.91592481735533,0.3626698263155069,11.254194446139609,-0.5625,13.624348037135867,12.722526962864134,13.104166666666666,12.895833333333332,12.729166666666666,12.520833333333332,13.270833333333332,13.479166666666666,13.645833333333332,0
0.5,0.18,0.32,13.0,12.75,12.9375,338800.0,6035.178,6.8,134.8,6.12,3327.3,46.42141576681289,0.3373711345345387,11.25708973087186,-0.34375,13.625613036105314,12.699386963894684,12.895833333333334,12.791666666666668,12.645833333333334,12.541666666666668,13.041666666666668,13.145833333333334,13.291666666666668,1
0.5,0.21,0.29,13.0625,12.90625,12.96875,525600.0,6035.178,6.8,134.8,6.12,3327.3,47.4819951536869,0.3120978920058737,11.26164485849286,-0.21875,13.61982732646267,12.714547673537332,12.979166666666666,12.895833333333332,12.822916666666666,12.739583333333332,13.052083333333332,13.135416666666666,13.208333333333332,0
0.5,0.21,0.29,13.0625,12.96875,12.96875,434400.0,6035.178,6.8,134.8,6.12,3327.3,47.4819951536869,0.2874541314841298,11.265391339558889,-0.09375,13.618256308134589,12.719243691865412,13.0,12.9375,12.90625,12.84375,13.03125,13.09375,13.125,0
0.5,0.21,0.29,13.1875,12.96875,12.96875,428400.0,6035.178,6.8,134.8,6.12,3327.3,47.481995153686896,0.2638416186260199,11.269070003206208,-0.0625,13.59540967842907,12.70146532157093,13.041666666666666,12.895833333333332,12.822916666666666,12.677083333333332,13.114583333333332,13.260416666666666,13.333333333333332,1
0.5,0.21,0.29,13.15625,12.90625,13.15625,414800.0,6035.178,6.8,134.8,6.12,3327.3,55.58548106838003,0.2445033833396703,11.27300803652279,0.0,13.576550751722134,12.701574248277865,13.072916666666666,12.989583333333332,12.822916666666666,12.739583333333332,13.239583333333332,13.322916666666666,13.489583333333332,0
0.5,0.21,0.29,12.9375,12.03125,12.3125,3656400.0,6035.178,6.8,134.8,6.12,3327.3,30.86078214178282,0.2148391135472936,11.291783308239031,-0.9375,13.65727634783229,12.523973652167708,12.427083333333334,11.916666666666668,11.520833333333334,11.010416666666668,12.822916666666668,13.333333333333334,13.729166666666668,1
0.55,0.22,0.23,12.5625,12.21875,12.5625,1612000.0,6035.178,6.8,134.8,6.12,3327.3,39.98696859510546,0.1837566776068139,11.3018220799575,-0.65625,13.68199471375424,12.45550528624576,12.447916666666666,12.333333333333332,12.104166666666666,11.989583333333332,12.677083333333332,12.791666666666666,13.020833333333332,0
0.55,0.22,0.23,12.21875,11.25,11.4375,1902000.0,6035.178,6.8,134.8,6.12,3327.3,23.72592422750405,0.1350472186652992,11.303075097207872,-1.1875,13.930496584901686,12.032003415098313,11.635416666666666,11.052083333333332,10.666666666666666,10.083333333333332,12.020833333333332,12.604166666666666,12.989583333333332,1
0.55,0.22,0.23,11.75,11.28125,11.625,1174800.0,6035.178,6.8,134.8,6.12,3327.3,29.258186944558982,0.0805265665880692,11.30490103328808,-1.65625,13.975148004460207,11.796726995539792,11.552083333333334,11.354166666666668,11.083333333333334,10.885416666666668,11.822916666666668,12.020833333333334,12.291666666666668,1
0.55,0.22,0.23,11.90625,11.59375,11.875,403200.0,6035.178,6.8,134.8,6.12,3327.3,36.359608997480144,0.0290267015623865,11.306008659537683,-1.1875,13.918396050396131,11.67847894960387,11.791666666666666,11.677083333333332,11.479166666666666,11.364583333333332,11.989583333333332,12.104166666666666,12.302083333333332,0
0.55,0.22,0.23,12.0625,11.75,11.75,598800.0,6035.178,6.8,134.8,6.12,3327.3,34.36913871389355,-0.0199405443562787,11.307286061120315,-1.1875,13.91013652867391,11.533613471326092,11.854166666666666,11.645833333333332,11.541666666666666,11.333333333333332,11.958333333333332,12.166666666666666,12.270833333333332,1
0.42,0.31,0.27,11.9375,11.75,11.90625,298400.0,6035.178,6.8,134.8,6.12,3327.3,39.17197854998294,-0.062215123711034,11.30814358936714,-1.0625,13.878096622168243,11.437528377831756,11.864583333333334,11.791666666666668,11.677083333333334,11.604166666666668,11.979166666666668,12.052083333333334,12.166666666666668,1
0.42,0.31,0.27,12.125,12.0,12.09375,232800.0,6035.178,6.8,134.8,6.12,3327.3,44.768357471436175,-0.0949455121736058,11.309020089773524,-0.875,13.83889472330668,11.37985527669332,12.072916666666666,12.020833333333332,11.947916666666666,11.895833333333332,12.145833333333332,12.197916666666666,12.270833333333332,1
0.42,0.31,0.27,12.25,11.9375,12.25,303600.0,6035.178,6.8,134.8,6.12,3327.3,49.25729629068314,-0.1172687281184264,11.31038723547822,-0.71875,13.793020311150112,11.347604688849888,12.145833333333334,12.041666666666668,11.833333333333334,11.729166666666668,12.354166666666668,12.458333333333334,12.666666666666668,1
0.42,0.31,0.27,12.5,12.28125,12.3125,697600.0,6035.178,6.8,134.8,6.12,3327.3,51.091908753242784,-0.1306342799328062,11.313721563429484,-0.84375,13.72363125149706,11.33261874850294,12.364583333333334,12.229166666666668,12.145833333333334,12.010416666666668,12.447916666666668,12.583333333333334,12.666666666666668,0
0.42,0.31,0.27,12.34375,12.15625,12.21875,262400.0,6035.178,6.8,134.8,6.12,3327.3,48.083049293185184,-0.1388826816445429,11.314852838197044,-0.09375,13.629161643754816,11.323963356245184,12.239583333333334,12.135416666666668,12.052083333333334,11.947916666666668,12.322916666666668,12.427083333333334,12.510416666666668,0
0.47,0.28,0.25,12.21875,12.09375,12.1875,464000.0,6126.862,6.7,135.1,5.91,3349.5,47.01806985242882,-0.1436733917340768,11.316777435285616,-0.375,13.529044597688127,11.320955402311874,12.166666666666666,12.114583333333332,12.041666666666666,11.989583333333332,12.239583333333332,12.291666666666666,12.364583333333332,1
0.47,0.28,0.25,12.3125,12.1875,12.25,627600.0,6126.862,6.7,135.1,5.91,3349.5,49.59442482038643,-0.1447211390432137,11.319553040657096,0.8125,13.50872926344032,11.30377073655968,12.25,12.1875,12.125,12.0625,12.3125,12.375,12.4375,0
0.47,0.28,0.25,12.375,12.1875,12.1875,700000.0,6126.862,6.7,135.1,5.91,3349.5,46.95960876850638,-0.1440352473967669,11.322422780114268,0.5625,13.377114942588932,11.326010057411068,12.25,12.125,12.0625,11.9375,12.3125,12.4375,12.5,0
0.47,0.28,0.25,12.25,12.0625,12.15625,374000.0,6126.862,6.7,135.1,5.91,3349.5,45.56308455097521,-0.1424689900470402,11.32389316961482,0.28125,13.278225741521045,11.334274258478956,12.15625,12.0625,11.96875,11.875,12.25,12.34375,12.4375,0
0.58,0.22,0.2,12.1875,11.90625,12.09375,542400.0,6126.862,6.7,135.1,5.91,3349.5,42.63698945798585,-0.1411054776787263,11.325857005126275,0.34375,13.192964963224384,11.335160036775614,12.0625,11.9375,11.78125,11.65625,12.21875,12.34375,12.5,0
0.58,0.22,0.2,12.125,11.875,12.0625,334800.0,6126.862,6.7,135.1,5.91,3349.5,41.11370894421072,-0.140117487080625,11.327015074791705,0.15625,13.089510405743534,11.347989594256466,12.020833333333334,11.916666666666668,11.770833333333334,11.666666666666668,12.166666666666668,12.270833333333334,12.416666666666668,0
0.58,0.22,0.2,12.15625,11.78125,11.8125,476400.0,6126.862,6.7,135.1,5.91,3349.5,30.917554890375484,-0.1430859062454511,11.32809867541974,-0.28125,12.973633579579122,11.348241420420877,11.916666666666666,11.677083333333332,11.541666666666666,11.302083333333332,12.052083333333332,12.291666666666666,12.427083333333332,0
0.58,0.22,0.2,11.90625,11.75,11.8125,333200.0,6126.862,6.7,135.1,5.91,3349.5,30.917554890375484,-0.1480523952399486,11.328853688748511,-0.4375,12.834275184370748,11.371974815629253,11.822916666666666,11.739583333333332,11.666666666666666,11.583333333333332,11.895833333333332,11.979166666666666,12.052083333333332,0
0.58,0.22,0.2,11.9375,11.75,11.75,470800.0,6126.862,6.7,135.1,5.91,3349.5,28.560090542224927,-0.1546705937752925,11.329779150244672,-0.5625,12.586461801762606,11.479163198237394,11.8125,11.6875,11.625,11.5,11.875,12.0,12.0625,0
0.43,0.32,0.25,11.8125,11.6875,11.75,400000.0,6126.862,6.7,135.1,5.91,3349.5,28.560090542224927,-0.1616245893787722,11.33056224877146,-0.46875,12.555656667037892,11.453718332962106,11.75,11.6875,11.625,11.5625,11.8125,11.875,11.9375,1
0.43,0.32,0.25,11.96875,11.625,11.90625,568800.0,6126.862,6.7,135.1,5.91,3349.5,43.02086804580819,-0.1655632635132569,11.332083763138083,-0.28125,12.457227896571805,11.486522103428197,11.833333333333334,11.697916666666668,11.489583333333334,11.354166666666668,12.041666666666668,12.177083333333334,12.385416666666668,1
0.43,0.32,0.25,12.125,11.84375,12.09375,423600.0,6126.862,6.7,135.1,5.91,3349.5,55.49451481138036,-0.1640367156019755,11.33357998558693,-0.15625,12.42187330597935,11.587501694020649,12.020833333333334,11.916666666666668,11.739583333333334,11.635416666666668,12.197916666666668,12.302083333333334,12.479166666666668,0
0.43,0.32,0.25,12.1875,11.9375,12.09375,671200.0,6126.862,6.7,135.1,5.91,3349.5,55.49451481138036,-0.1587908236992911,11.335938771330616,-0.09375,12.406345817568546,11.649904182431452,12.072916666666666,11.958333333333332,11.822916666666666,11.708333333333332,12.208333333333332,12.322916666666666,12.458333333333332,0
0.43,0.32,0.25,12.25,11.9375,11.9375,689600.0,6126.862,6.7,135.1,5.91,3349.5,44.64992933947617,-0.153619678446012,11.337850474934378,-0.21875,12.405151901010228,11.657348098989772,12.041666666666666,11.833333333333332,11.729166666666666,11.520833333333332,12.145833333333332,12.354166666666666,12.458333333333332,1
0.39,0.39,0.22,12.0625,11.90625,11.96875,916800.0,6126.862,6.7,135.1,5.91,3349.5,47.03830520479564,-0.1479177571037665,11.340504758272942,-0.125,12.393568118156304,11.6908068818437,11.979166666666666,11.895833333333332,11.822916666666666,11.739583333333332,12.052083333333332,12.135416666666666,12.208333333333332,0
0.39,0.39,0.22,12.0,11.875,11.90625,325200.0,6126.862,6.7,135.1,5.91,3349.5,42.778515975024575,-0.1428420762385625,11.34134777520569,-0.15625,12.393568118156304,11.6908068818437,11.927083333333334,11.854166666666668,11.802083333333334,11.729166666666668,11.979166666666668,12.052083333333334,12.104166666666668,0
0.39,0.39,0.22,11.875,11.75,11.8125,755200.0,6126.862,6.7,135.1,5.91,3349.5,36.98201190243037,-0.1395951468601904,11.3429725300417,0.0,12.393066866315156,11.663183133684845,11.8125,11.75,11.6875,11.625,11.875,11.9375,12.0,1
0.39,0.39,0.22,11.9375,11.78125,11.90625,578000.0,6126.862,6.7,135.1,5.91,3349.5,45.50250752623589,-0.1358507608156559,11.34445528742982,0.09375,12.364069049776402,11.6578059502236,11.875,11.8125,11.71875,11.65625,11.96875,12.03125,12.125,1
0.39,0.39,0.22,12.0625,11.875,12.0,660000.0,6126.862,6.7,135.1,5.91,3349.5,52.85718661131299,-0.1301855076144577,11.34641983557459,0.25,12.318660401078224,11.671964598921775,11.979166666666666,11.895833333333332,11.791666666666666,11.708333333333332,12.083333333333332,12.166666666666666,12.270833333333332,1
0.55,0.28,0.17,12.15625,11.9375,12.15625,304400.0,6126.862,6.7,135.1,5.91,3349.5,62.57104140862984,-0.1208236774284864,11.347537612565636,0.40625,12.307552654893762,11.676822345106238,12.083333333333334,12.010416666666668,11.864583333333334,11.791666666666668,12.229166666666668,12.302083333333334,12.447916666666668,0
0.55,0.28,0.17,12.25,11.90625,11.90625,464000.0,6126.862,6.7,135.1,5.91,3349.5,45.3280953178712,-0.1133488893987228,11.348710645152533,0.0,12.281681224741089,11.674568775258914,12.020833333333334,11.791666666666668,11.677083333333334,11.447916666666668,12.135416666666668,12.364583333333334,12.479166666666668,0
0.55,0.28,0.17,12.0625,11.75,11.875,733200.0,6126.862,6.7,135.1,5.91,3349.5,43.59534446821855,-0.1076889340259235,11.35045089818847,-0.21875,12.237482443266291,11.681267556733708,11.895833333333334,11.729166666666668,11.583333333333334,11.416666666666668,12.041666666666668,12.208333333333334,12.354166666666668,1
0.55,0.28,0.17,12.0625,11.96875,12.03125,822000.0,6126.862,6.9,135.6,5.78,3330.3,53.787115113395856,-0.1007248624598789,11.352965383730565,-0.0625,12.210827497282514,11.692297502717484,12.020833333333334,11.979166666666668,11.927083333333334,11.885416666666668,12.072916666666668,12.114583333333334,12.166666666666668,1
0.55,0.28,0.17,12.25,12.0,12.125,975200.0,6126.862,6.9,135.6,5.78,3330.3,58.92528444075977,-0.0915831654360945,11.356333522567644,0.1875,12.204402033672991,11.695597966327004,12.125,12.0,11.875,11.75,12.25,12.375,12.5,0
0.39,0.33,0.28,12.15625,12.0625,12.125,680800.0,6126.862,6.9,135.6,5.78,3330.3,58.92528444075977,-0.0813470612675409,11.358667498166923,0.15625,12.21003330029546,11.69309169970454,12.114583333333334,12.072916666666668,12.020833333333334,11.979166666666668,12.166666666666668,12.208333333333334,12.260416666666668,0
0.39,0.33,0.28,12.0625,11.90625,12.0,560800.0,6126.862,6.9,135.6,5.78,3330.3,49.2122840953366,-0.0727704929845658,11.360267591002518,0.09375,12.202738496283224,11.69413650371678,11.989583333333334,11.916666666666668,11.833333333333334,11.760416666666668,12.072916666666668,12.145833333333334,12.229166666666668,0
0.39,0.33,0.28,11.9375,11.75,11.75,613600.0,6126.862,6.9,135.6,5.78,3330.3,35.65098821247935,-0.0695064328407539,11.361328606808891,-0.0625,12.208043444774722,11.682581555225278,11.8125,11.6875,11.625,11.5,11.875,12.0,12.0625,0
0.39,0.33,0.28,11.75,11.625,11.625,1042800.0,6126.862,6.9,135.6,5.78,3330.3,30.760628695223645,-0.0715791400786784,11.362542916057208,-0.28125,12.230121110540493,11.641753889459508,11.666666666666666,11.583333333333332,11.541666666666666,11.458333333333332,11.708333333333332,11.791666666666666,11.833333333333332,1
0.39,0.33,0.28,11.875,11.625,11.71875,768000.0,6126.862,6.9,135.6,5.78,3330.3,38.10771137780809,-0.0752293051477747,11.363747004820455,-0.28125,12.233015009481768,11.63573499051823,11.739583333333334,11.604166666666668,11.489583333333334,11.354166666666668,11.854166666666668,11.989583333333334,12.104166666666668,0
0.38,0.34,0.28,11.75,11.625,11.65625,570800.0,6126.862,6.9,135.6,5.78,3330.3,35.23193595958864,-0.0805025307338744,11.364480030662618,-0.5,12.243090799742658,11.616284200257342,11.677083333333334,11.604166666666668,11.552083333333334,11.479166666666668,11.729166666666668,11.802083333333334,11.854166666666668,0
0.38,0.34,0.28,11.75,11.5625,11.59375,477200.0,6126.862,6.9,135.6,5.78,3330.3,32.40986919076576,-0.0873302974549295,11.364959370662582,-0.3125,12.261678322235602,11.566446677764398,11.635416666666666,11.520833333333332,11.447916666666666,11.333333333333332,11.708333333333332,11.822916666666666,11.895833333333332,1
0.38,0.34,0.28,11.71875,11.5625,11.625,648800.0,6126.862,6.9,135.6,5.78,3330.3,35.39533805510968,-0.0940768787174632,11.365696451913363,-0.25,12.250232333366046,11.531017666633954,11.635416666666666,11.552083333333332,11.479166666666666,11.395833333333332,11.708333333333332,11.791666666666666,11.864583333333332,0
0.38,0.34,0.28,11.6875,11.5,11.5,912800.0,6126.862,6.9,135.6,5.78,3330.3,29.40148119457494,-0.1021987893273487,11.366229907139871,-0.53125,12.246999666898851,11.474875333101147,11.5625,11.4375,11.375,11.25,11.625,11.75,11.8125,1
0.38,0.34,0.28,11.625,11.4375,11.625,445600.0,6126.862,6.9,135.6,5.78,3330.3,40.94114669003082,-0.108529732044738,11.366730693895772,-0.5,12.24343463396487,11.44719036603513,11.5625,11.5,11.375,11.3125,11.6875,11.75,11.875,1
0.42,0.32,0.26,11.8125,11.59375,11.71875,813600.0,6126.862,6.9,135.6,5.78,3330.3,48.25985505351334,-0.1116631645969281,11.367970172746285,-0.40625,12.230314465404083,11.435310534595914,11.708333333333334,11.604166666666668,11.489583333333334,11.385416666666668,11.822916666666668,11.927083333333334,12.041666666666668,0
0.42,0.32,0.26,11.8125,11.59375,11.625,250000.0,6126.862,6.9,135.6,5.78,3330.3,42.22256610043791,-0.1138694235679736,11.368247962105714,-0.375,12.22511385044376,11.41238614955624,11.677083333333334,11.541666666666668,11.458333333333334,11.322916666666668,11.760416666666668,11.895833333333334,11.979166666666668,1
0.42,0.32,0.26,11.75,11.5625,11.75,490800.0,6126.862,6.9,135.6,5.78,3330.3,51.547734454593694,-0.1131250589157327,11.369056234038515,0.0,12.22315083063125,11.408099169368752,11.6875,11.625,11.5,11.4375,11.8125,11.875,12.0,0
0.42,0.32,0.26,11.71875,11.5,11.5625,716400.0,6126.862,6.9,135.6,5.78,3330.3,40.29235280655704,-0.1133039394639069,11.369652227895225,-0.0625,12.21866760222484,11.37820739777516,11.59375,11.46875,11.375,11.25,11.6875,11.8125,11.90625,0
0.42,0.32,0.26,11.6875,11.34375,11.46875,516000.0,6126.862,6.9,135.6,5.78,3330.3,35.78455733092953,-0.1152895989022057,11.369871651009868,-0.25,12.205409661395937,11.338340338604064,11.5,11.3125,11.15625,10.96875,11.65625,11.84375,12.0,1
0.38,0.39,0.23,11.6875,11.4375,11.5625,752400.0,6126.862,6.9,135.6,5.78,3330.3,43.12632704899602,-0.116545125984496,11.370491574163106,-0.09375,12.145134599669037,11.339240400330963,11.5625,11.4375,11.3125,11.1875,11.6875,11.8125,11.9375,1
0.38,0.39,0.23,12.0,11.5625,12.0,791200.0,6126.862,6.9,135.6,5.78,3330.3,64.7977178801526,-0.11003151654991,11.37261476699178,0.40625,12.15991292676639,11.333837073233608,11.854166666666666,11.708333333333332,11.416666666666666,11.270833333333332,12.145833333333332,12.291666666666666,12.583333333333332,1
0.38,0.39,0.23,12.46875,12.0,12.375,777200.0,6126.862,6.9,135.6,5.78,3330.3,74.43287047211076,-0.0927561269633115,11.37592480196396,0.75,12.269443099015607,11.274306900984392,12.28125,12.09375,11.8125,11.625,12.5625,12.75,13.03125,1
0.38,0.39,0.23,13.3125,12.5,13.28125,1727600.0,6126.862,6.9,135.6,5.78,3330.3,85.49978965833337,-0.0549709671014423,11.38980837559598,1.78125,12.66899297910945,10.999757020890549,13.03125,12.75,12.21875,11.9375,13.5625,13.84375,14.375,1
0.42,0.35,0.23,13.75,13.40625,13.5625,2689200.0,6126.862,6.9,135.6,5.78,3330.3,87.44572661819808,-0.0016989716476006,11.414175925230838,1.9375,13.040169320902464,10.772330679097536,13.572916666666666,13.395833333333332,13.229166666666666,13.052083333333332,13.739583333333332,13.916666666666666,14.083333333333332,0
0.42,0.35,0.23,13.75,13.40625,13.5625,2689200.0,6126.862,6.9,136.0,5.9,3349.7,87.44572661819808,0.0584911385959881,11.43800295462644,1.84375,13.331437821229954,10.624812178770046,13.572916666666666,13.395833333333332,13.229166666666666,13.052083333333332,13.739583333333332,13.916666666666666,14.083333333333332,0
0.42,0.35,0.23,13.78125,13.3125,13.5625,948400.0,6126.862,6.9,136.0,5.9,3349.7,87.44572661819808,0.1197288109888234,11.446280456141675,1.9375,13.584035419970292,10.52846458002971,13.552083333333334,13.322916666666668,13.083333333333334,12.854166666666668,13.791666666666668,14.020833333333334,14.260416666666668,1
0.42,0.35,0.23,13.6875,13.3125,13.625,1294000.0,6126.862,6.9,136.0,5.9,3349.7,87.99567680104684,0.1791371598831257,11.457801308162818,1.875,13.821967994216497,10.478032005783506,13.541666666666666,13.395833333333332,13.166666666666666,13.020833333333332,13.770833333333332,13.916666666666666,14.145833333333332,0
0.42,0.35,0.23,13.6875,13.1875,13.25,1778800.0,6126.862,6.9,136.0,5.9,3349.7,67.51909217173132,0.2278934446257509,11.470734829712068,1.6875,13.952990818871568,10.509509181128433,13.375,13.0625,12.875,12.5625,13.5625,13.875,14.0625,1
0.42,0.35,0.23,13.4375,13.28125,13.34375,777600.0,6126.862,6.9,136.0,5.9,3349.7,69.56222676590924,0.2683936481480513,11.47662507178504,1.875,14.085028858053288,10.539971141946712,13.354166666666666,13.270833333333332,13.197916666666666,13.114583333333332,13.427083333333332,13.510416666666666,13.583333333333332,0
0.46,0.37,0.17,13.375,13.21875,13.25,311200.0,6126.862,6.9,136.0,5.9,3349.7,64.85504983817835,0.2994885624059638,11.4788541715473,1.6875,14.18369191686813,10.600683083131871,13.28125,13.1875,13.125,13.03125,13.34375,13.4375,13.5,0
0.46,0.37,0.17,13.1875,12.9375,13.15625,430400.0,6126.862,6.9,136.0,5.9,3349.7,60.15796815459635,0.3208800552666233,11.481765175744616,1.15625,14.251458618854556,10.689166381145444,13.09375,13.0,12.84375,12.75,13.25,13.34375,13.5,1
0.46,0.37,0.17,13.53125,13.28125,13.53125,532000.0,6126.862,6.9,136.0,5.9,3349.7,70.13936378650911,0.3403198096080659,11.486152106143246,1.15625,14.360273935762006,10.770976064237995,13.447916666666666,13.364583333333332,13.197916666666666,13.114583333333332,13.614583333333332,13.697916666666666,13.864583333333332,0
0.46,0.37,0.17,13.5625,13.3125,13.40625,814400.0,6126.862,6.9,136.0,5.9,3349.7,63.975019705782856,0.3547472283318544,11.492423221604628,0.125,14.419407954348298,10.9024670456517,13.427083333333334,13.291666666666668,13.177083333333334,13.041666666666668,13.541666666666668,13.677083333333334,13.791666666666668,1
0.46,0.37,0.17,13.6875,13.40625,13.65625,2080400.0,6126.862,6.9,136.0,5.9,3349.7,70.04947560090159,0.368456766363144,11.510326997817325,0.09375,14.503595768096728,11.02140423190327,13.583333333333334,13.479166666666668,13.302083333333334,13.197916666666668,13.760416666666668,13.864583333333334,14.041666666666668,1
0.47,0.31,0.22,13.9375,13.6875,13.9375,1980000.0,6126.862,6.9,136.0,5.9,3349.7,75.42781126064054,0.3846450660319955,11.529291202473104,0.375,14.617255881983125,11.129619118016876,13.854166666666666,13.770833333333332,13.604166666666666,13.520833333333332,14.020833333333332,14.104166666666666,14.270833333333332,1
0.47,0.31,0.22,14.4375,13.875,14.125,804000.0,6126.862,6.9,136.0,5.9,3349.7,78.41010640679565,0.403653157135408,11.537500481869133,0.5625,14.723765820204632,11.273109179795368,14.145833333333334,13.854166666666668,13.583333333333334,13.291666666666668,14.416666666666668,14.708333333333334,14.979166666666668,0
0.47,0.31,0.22,14.25,14.0,14.0,1647600.0,6126.862,6.9,136.0,5.9,3349.7,71.71477516349763,0.4205178941464911,11.553357274901709,0.375,14.786206896050151,11.435668103949848,14.083333333333334,13.916666666666668,13.833333333333334,13.666666666666668,14.166666666666668,14.333333333333334,14.416666666666668,0
0.47,0.31,0.22,13.9375,13.71875,13.8125,801200.0,6126.862,6.9,136.0,5.9,3349.7,62.48085427363405,0.4312052426201567,11.560409306292351,0.5625,14.757088946668558,11.68978605333144,13.822916666666666,13.708333333333332,13.604166666666666,13.489583333333332,13.927083333333332,14.041666666666666,14.145833333333332,0
0.47,0.31,0.22,13.8125,13.65625,13.8125,678800.0,6126.862,6.9,136.0,5.9,3349.7,62.48085427363405,0.4364776711956925,11.566349632401511,0.46875,14.651777190170776,12.029472809829224,13.760416666666666,13.708333333333332,13.604166666666666,13.552083333333332,13.864583333333332,13.916666666666666,14.020833333333332,1
0.44,0.4,0.16,14.0,13.8125,14.0,910000.0,6126.862,6.9,136.0,5.9,3349.7,67.97135429107159,0.4400763755537498,11.574924929140078,0.75,14.502924698203447,12.422075301796552,13.9375,13.875,13.75,13.6875,14.0625,14.125,14.25,0
0.44,0.4,0.16,13.9375,13.625,13.71875,510800.0,6126.862,6.9,136.0,5.9,3349.7,54.23484144734182,0.4369471694033273,11.57915679291161,0.5625,14.332603112123488,12.764271887876513,13.760416666666666,13.583333333333332,13.447916666666666,13.270833333333332,13.895833333333332,14.072916666666666,14.208333333333332,0
0.44,0.4,0.16,13.8125,13.59375,13.6875,780800.0,6126.862,6.9,136.0,5.9,3349.7,52.86514171302461,0.4282706109616782,11.585499345784742,0.15625,14.171707852187172,13.056417147812828,13.697916666666666,13.583333333333332,13.479166666666666,13.364583333333332,13.802083333333332,13.916666666666666,14.020833333333332,0
0.44,0.4,0.16,13.75,13.46875,13.6875,681200.0,6126.862,6.9,136.0,5.9,3349.7,52.86514171302461,0.4155958037521861,11.591001745387135,0.28125,14.17014332434233,13.09860667565767,13.635416666666666,13.520833333333332,13.354166666666666,13.239583333333332,13.802083333333332,13.916666666666666,14.083333333333332,1
0.44,0.4,0.16,14.0625,13.6875,14.0625,739600.0,6126.862,6.9,136.0,5.9,3349.7,66.41577043512613,0.4061150850917754,11.598006118748478,0.40625,14.226751522620756,13.091998477379246,13.9375,13.8125,13.5625,13.4375,14.1875,14.3125,14.5625,0
0.28,0.37,0.35,14.0,13.71875,13.84375,677600.0,6126.862,6.9,136.0,5.9,3349.7,55.6478813086125,0.394717707274886,11.603822053461547,-0.09375,14.2446330807318,13.1022419192682,13.854166666666666,13.708333333333332,13.572916666666666,13.427083333333332,13.989583333333332,14.135416666666666,14.270833333333332,1
0.28,0.37,0.35,14.25,13.78125,14.21875,743600.0,6205.937,6.8,136.2,5.82,3354.4,66.4175595112941,0.3877997384938529,11.611232638412496,0.09375,14.324103883254612,13.08839611674539,14.083333333333334,13.916666666666668,13.614583333333334,13.447916666666668,14.385416666666668,14.552083333333334,14.854166666666668,0
0.28,0.37,0.35,14.28125,14.125,14.15625,644800.0,6205.937,6.8,136.2,5.82,3354.4,63.45445395037149,0.3821710028258235,11.617471469511212,0.15625,14.380897672988503,13.084727327011496,14.1875,14.09375,14.03125,13.9375,14.25,14.34375,14.40625,0
0.28,0.39,0.33,14.125,14.0,14.03125,749200.0,6205.937,6.8,136.2,5.82,3354.4,57.531383103453365,0.374780054106204,11.624327099941013,0.21875,14.390958841358948,13.152791158641053,14.052083333333334,13.979166666666668,13.927083333333334,13.854166666666668,14.104166666666668,14.177083333333334,14.229166666666668,1
0.28,0.39,0.33,14.15625,14.03125,14.0625,239200.0,6205.937,6.8,136.2,5.82,3354.4,58.644912472476186,0.3663164060754914,11.626536041584288,0.25,14.405324818195124,13.210300181804875,14.083333333333334,14.010416666666668,13.958333333333334,13.885416666666668,14.135416666666668,14.208333333333334,14.260416666666668,1
0.28,0.39,0.33,14.1875,14.0,14.09375,400800.0,6205.937,6.8,136.2,5.82,3354.4,59.85932472320153,0.3572877556244489,11.630275720472756,0.09375,14.398847476656089,13.301152523343912,14.09375,14.0,13.90625,13.8125,14.1875,14.28125,14.375,0
0.28,0.39,0.33,14.125,14.0,14.03125,477600.0,6205.937,6.8,136.2,5.82,3354.4,56.06031314581214,0.3465667873139397,11.634604524252817,0.3125,14.3395823085742,13.447917691425802,14.052083333333334,13.979166666666668,13.927083333333334,13.854166666666668,14.104166666666668,14.177083333333334,14.229166666666668,0
0.28,0.39,0.33,14.15625,13.96875,13.96875,809200.0,6205.937,6.8,136.2,5.82,3354.4,52.23515333265367,0.3335600710204661,11.641712979619918,0.28125,14.328264529830973,13.502985470169028,14.03125,13.90625,13.84375,13.71875,14.09375,14.21875,14.28125,1
0.28,0.39,0.33,14.25,13.9375,14.1875,1207600.0,6205.937,6.8,136.2,5.82,3354.4,62.553707373452525,0.3225323033501587,11.653230720670768,0.5,14.307935469972447,13.601439530027552,14.125,14.0,13.8125,13.6875,14.3125,14.4375,14.625,1
0.41,0.39,0.2,14.5,14.125,14.40625,848000.0,6205.937,6.8,136.2,5.82,3354.4,70.02530030541651,0.3160779082711618,11.6619493793088,0.34375,14.370394727901616,13.613980272098384,14.34375,14.1875,13.96875,13.8125,14.5625,14.71875,14.9375,1
0.41,0.39,0.2,14.5625,14.375,14.5,478400.0,6205.937,6.8,136.2,5.82,3354.4,72.71723138725491,0.3136036855936602,11.667010895660823,0.65625,14.460050665964074,13.580574334035925,14.479166666666666,14.395833333333332,14.291666666666666,14.208333333333332,14.583333333333332,14.666666666666666,14.770833333333332,0
0.41,0.39,0.2,14.8125,14.375,14.375,658800.0,6205.937,6.8,136.2,5.82,3354.4,63.88992648008953,0.3110447924806035,11.67364533966126,0.15625,14.498526351466278,13.567098648533722,14.520833333333334,14.229166666666668,14.083333333333334,13.791666666666668,14.666666666666668,14.958333333333334,15.104166666666668,0
0.41,0.39,0.2,14.5,14.1875,14.3125,533200.0,6205.937,6.8,136.2,5.82,3354.4,59.708316442781424,0.3068608859871299,11.6788674896933,0.15625,14.530208407420767,13.566666592579232,14.333333333333334,14.166666666666668,14.020833333333334,13.854166666666668,14.479166666666668,14.645833333333334,14.791666666666668,1
0.41,0.39,0.2,14.6875,14.28125,14.65625,738000.0,6205.937,6.8,136.2,5.82,3354.4,71.53249814747181,0.3066627123341076,11.687000415287311,0.625,14.629759601394904,13.551490398605097,14.541666666666666,14.395833333333332,14.135416666666666,13.989583333333332,14.802083333333332,14.947916666666666,15.208333333333332,0
0.27,0.51,0.22,14.84375,14.65625,14.65625,896000.0,6205.937,6.8,136.2,5.82,3354.4,71.53249814747181,0.3082741610464627,11.696815015582668,0.59375,14.710948612980127,13.554676387019873,14.71875,14.59375,14.53125,14.40625,14.78125,14.90625,14.96875,0
0.27,0.51,0.22,14.65625,14.4375,14.5,990400.0,6205.937,6.8,136.2,5.82,3354.4,60.74460733273293,0.3077398745315776,11.707019625760124,0.40625,14.754705152673814,13.560919847326186,14.53125,14.40625,14.3125,14.1875,14.625,14.75,14.84375,1
0.27,0.51,0.22,14.59375,14.375,14.53125,452800.0,6205.937,6.8,136.2,5.82,3354.4,62.06484733838609,0.305685865003176,11.71171227784595,0.5,14.77990675689216,13.61696824310784,14.5,14.40625,14.28125,14.1875,14.625,14.71875,14.84375,0
0.27,0.51,0.22,14.59375,14.40625,14.4375,521200.0,6205.937,6.8,136.2,5.82,3354.4,55.5928055092693,0.3005945506894369,11.716915572666927,0.46875,14.77376443545433,13.69811056454567,14.479166666666666,14.364583333333332,14.291666666666666,14.177083333333332,14.552083333333332,14.666666666666666,14.739583333333332,0
0.27,0.51,0.22,14.59375,14.15625,14.25,299600.0,6205.937,6.8,136.2,5.82,3354.4,44.80966581628906,0.2901898389114443,11.719692069494362,0.0625,14.735916259543076,13.792208740456925,14.333333333333334,14.072916666666668,13.895833333333334,13.635416666666668,14.510416666666668,14.770833333333334,14.947916666666668,0
0.35,0.42,0.23,14.125,14.03125,14.0625,575200.0,6205.937,6.8,136.2,5.82,3354.4,36.614963955510085,0.2733473703911444,11.724611879247751,-0.34375,14.735916259543076,13.792208740456925,14.072916666666666,14.020833333333332,13.979166666666666,13.927083333333332,14.114583333333332,14.166666666666666,14.208333333333332,1
0.35,0.42,0.23,14.125,13.96875,14.125,486000.0,6205.937,6.8,136.2,5.82,3354.4,40.78033820175781,0.2537268877430753,11.728863363698252,-0.375,14.712512424093658,13.84373757590634,14.072916666666666,14.020833333333332,13.916666666666666,13.864583333333332,14.177083333333332,14.229166666666666,14.333333333333332,1
0.35,0.42,0.23,14.3125,14.0,14.3125,390400.0,6205.937,6.8,136.2,5.82,3354.4,51.75495084806766,0.2358068958711335,11.732534044674765,-0.0625,14.716524958560653,13.84910004143935,14.208333333333334,14.104166666666668,13.895833333333334,13.791666666666668,14.416666666666668,14.520833333333334,14.729166666666668,0
0.35,0.42,0.23,14.28125,14.1875,14.21875,339200.0,6205.937,6.8,136.2,5.82,3354.4,46.75600340862354,0.2178589561487496,11.735599283526192,-0.09375,14.716700955512954,13.855174044487043,14.229166666666666,14.177083333333332,14.135416666666666,14.083333333333332,14.270833333333332,14.322916666666666,14.364583333333332,1
0.35,0.42,0.23,14.34375,14.125,14.25,363600.0,6205.937,6.9,136.6,5.66,3351.4,48.663143492525954,0.2008363907821369,11.738917879783134,-0.40625,14.711205071193168,13.882544928806832,14.239583333333334,14.135416666666668,14.020833333333334,13.916666666666668,14.354166666666668,14.458333333333334,14.572916666666668,0
0.33,0.36,0.31,14.25,14.1875,14.1875,741600.0,6205.937,6.9,136.6,5.66,3351.4,44.94780539024784,0.1838312853824464,11.74549162583119,-0.46875,14.70618688306406,13.90006311693594,14.208333333333334,14.166666666666668,14.145833333333334,14.104166666666668,14.229166666666668,14.270833333333334,14.291666666666668,0
0.33,0.36,0.31,14.1875,14.09375,14.1875,462800.0,6205.937,6.9,136.6,5.66,3351.4,44.94780539024783,0.1673095705917907,11.749576155106087,-0.3125,14.702719946685384,13.91290505331462,14.15625,14.125,14.0625,14.03125,14.21875,14.25,14.3125,1
0.33,0.36,0.31,14.3125,14.0625,14.21875,443200.0,6205.937,6.9,136.6,5.66,3351.4,47.61042353450014,0.1520741744041612,11.753524888827307,-0.3125,14.692885862877215,13.941489137122783,14.197916666666666,14.083333333333332,13.947916666666666,13.833333333333332,14.333333333333332,14.447916666666666,14.583333333333332,1
0.33,0.36,0.31,14.3125,14.09375,14.25,362400.0,6205.937,6.9,136.6,5.66,3351.4,50.37955039627071,0.138595650133896,11.756785164476389,-0.1875,14.67140766468258,13.991092335317422,14.21875,14.125,14.0,13.90625,14.34375,14.4375,14.5625,0
0.33,0.36,0.31,14.28125,14.0,14.0625,425600.0,6205.937,6.9,136.6,5.66,3351.4,36.88298680323468,0.1236175251464967,11.760316024789477,-0.1875,14.680525000971787,13.969474999028211,14.114583333333334,13.947916666666668,13.833333333333334,13.666666666666668,14.229166666666668,14.395833333333334,14.510416666666668,0
0.26,0.45,0.29,14.15625,13.84375,13.84375,254400.0,6205.937,6.9,136.6,5.66,3351.4,27.10725702899572,0.1047128797086169,11.76222136625796,-0.21875,14.709713776356288,13.884036223643712,13.947916666666666,13.739583333333332,13.635416666666666,13.427083333333332,14.052083333333332,14.260416666666666,14.364583333333332,1
0.26,0.45,0.29,13.9375,13.59375,13.9375,276800.0,6205.937,6.9,136.6,5.66,3351.4,35.55401572051572,0.0855952447356498,11.764383711442688,-0.1875,14.699573110605474,13.837926889394527,13.822916666666666,13.708333333333332,13.479166666666666,13.364583333333332,14.052083333333332,14.166666666666666,14.395833333333332,0
0.26,0.45,0.29,14.03125,13.625,13.65625,276400.0,6205.937,6.9,136.6,5.66,3351.4,25.375414484471264,0.0626640216999901,11.766259749508489,-0.65625,14.739541480687524,13.726083519312477,13.770833333333334,13.510416666666668,13.364583333333334,13.104166666666668,13.916666666666668,14.177083333333334,14.322916666666668,0
0.26,0.45,0.29,13.75,13.375,13.375,390000.0,6205.937,6.9,136.6,5.66,3351.4,19.07453354321777,0.0339146046834294,11.76850754329648,-0.84375,14.819261996418186,13.552613003581811,13.5,13.25,13.125,12.875,13.625,13.875,14.0,1
0.26,0.45,0.29,13.53125,13.4375,13.5,535600.0,6205.937,6.9,136.6,5.66,3351.4,28.21535216447484,0.0049425520929649,11.771823696191342,-0.75,14.791084125913333,13.46516587408667,13.489583333333334,13.447916666666668,13.395833333333334,13.354166666666668,13.541666666666668,13.583333333333334,13.635416666666668,0
0.37,0.33,0.3,13.625,13.3125,13.46875,328000.0,6205.937,6.9,136.6,5.66,3351.4,27.32502750301387,-0.023160121865786,11.773811626383642,-0.71875,14.745125304569706,13.392374695430291,13.46875,13.3125,13.15625,13.0,13.625,13.78125,13.9375,0
0.37,0.33,0.3,13.21875,12.9375,12.96875,849200.0,6205.937,6.9,136.6,5.66,3351.4,17.26648942368807,-0.0571691189091224,11.777424930955853,-1.21875,14.797411755703877,13.186963244296123,13.041666666666666,12.864583333333332,12.760416666666666,12.583333333333332,13.145833333333332,13.322916666666666,13.427083333333332,0
0.37,0.33,0.3,13.09375,12.8125,12.875,567600.0,6205.937,6.9,136.6,5.66,3351.4,15.992842378394826,-0.0944627035247782,11.77963878417526,-1.34375,14.815517234972068,13.003232765027931,12.927083333333334,12.760416666666668,12.645833333333334,12.479166666666668,13.041666666666668,13.208333333333334,13.322916666666668,1
0.37,0.33,0.3,13.5,13.0625,13.5,538400.0,6205.937,6.9,136.6,5.66,3351.4,46.40405001090912,-0.1216732030867655,11.782924021638586,-0.75,14.750421508503612,12.97457849149639,13.354166666666666,13.208333333333332,12.916666666666666,12.770833333333332,13.645833333333332,13.791666666666666,14.083333333333332,1
0.37,0.33,0.3,13.625,13.375,13.625,412000.0,6205.937,6.9,136.6,5.66,3351.4,50.536258644358654,-0.1388657810925789,11.785611918847628,-0.4375,14.705638884337398,12.956861115662605,13.541666666666666,13.458333333333332,13.291666666666666,13.208333333333332,13.708333333333332,13.791666666666666,13.958333333333332,1
0.32,0.36,0.32,14.34375,13.9375,14.25,950000.0,6205.937,6.9,136.6,5.66,3351.4,65.76438113473964,-0.1385900434216423,11.793875757669886,0.40625,14.729356539892766,12.951893460107232,14.177083333333334,14.010416666666668,13.770833333333334,13.604166666666668,14.416666666666668,14.583333333333334,14.822916666666668,1
0.32,0.36,0.32,14.4375,14.0,14.34375,452800.0,6205.937,6.9,136.6,5.66,3351.4,67.49631447356174,-0.1255683572878078,11.797944692545276,0.40625,14.760191410342774,12.942933589657226,14.260416666666666,14.083333333333332,13.822916666666666,13.645833333333332,14.520833333333332,14.697916666666666,14.958333333333332,0
0.32,0.36,0.32,14.34375,14.09375,14.1875,628800.0,6205.937,6.9,136.6,5.66,3351.4,61.51206170612189,-0.1074470576986877,11.803228218566138,0.53125,14.74223592387165,12.94838907612835,14.208333333333334,14.072916666666668,13.958333333333334,13.822916666666668,14.322916666666668,14.458333333333334,14.572916666666668,0
0.32,0.36,0.32,14.21875,14.125,14.15625,415600.0,6205.937,6.9,136.6,5.66,3351.4,60.27875234795278,-0.0873330495799895,11.806661911867977,0.78125,14.734053844055016,12.950321155944982,14.166666666666666,14.114583333333332,14.072916666666666,14.020833333333332,14.208333333333332,14.260416666666666,14.302083333333332,1
0.32,0.36,0.32,14.28125,14.0,14.25,498800.0,6205.937,6.9,136.6,5.66,3351.4,62.85662948784284,-0.0653296837211573,11.810933703541693,0.75,14.734053844055016,12.950321155944982,14.177083333333334,14.072916666666668,13.895833333333334,13.791666666666668,14.354166666666668,14.458333333333334,14.635416666666668,0
0.41,0.4,0.19,14.25,14.03125,14.15625,970800.0,6205.937,6.9,136.6,5.66,3351.4,58.4776102124706,-0.0446423847625987,11.818887160914048,0.6875,14.73005026534372,12.951199734656278,14.145833333333334,14.041666666666668,13.927083333333334,13.822916666666668,14.260416666666668,14.364583333333334,14.479166666666668,0
0.41,0.4,0.19,14.25,14.03125,14.15625,970800.0,6205.937,6.9,137.0,5.45,3347.6,58.477610212470594,-0.0257626844111272,11.82678685693238,1.1875,14.726028378934982,12.95209662106502,14.145833333333334,14.041666666666668,13.927083333333334,13.822916666666668,14.260416666666668,14.364583333333334,14.479166666666668,0
0.41,0.4,0.19,14.25,14.125,14.125,740800.0,6205.937,6.9,137.0,5.45,3347.6,56.72386640053148,-0.0094455140667705,11.832698757766131,1.25,14.713851331927824,12.954898668072175,14.166666666666666,14.083333333333332,14.041666666666666,13.958333333333332,14.208333333333332,14.291666666666666,14.333333333333332,0
0.41,0.4,0.19,14.09375,14.03125,14.09375,316000.0,6205.937,6.9,137.0,5.45,3347.6,54.82665302926681,0.0039330918198994,11.835177075948014,0.59375,14.693175262957723,12.959949737042276,14.072916666666666,14.052083333333332,14.010416666666666,13.989583333333332,14.114583333333332,14.135416666666666,14.177083333333332,0
0.41,0.4,0.19,14.1875,14.0625,14.09375,726800.0,6205.937,6.9,137.0,5.45,3347.6,54.8266530292668,0.0147595694944273,11.840856641662976,0.46875,14.696639498561018,12.959610501438982,14.114583333333334,14.041666666666668,13.989583333333334,13.916666666666668,14.166666666666668,14.239583333333334,14.291666666666668,1
